s0083lre
0.342,0.3475,0.3285,0.3205,0.339,0.334,0.332,0.339,0.344,0.3445,0.341,0.3425,0.343,0.339,0.3445,0.3425,0.335,0.336,0.3295,0.3235,0.318,0.322,0.3365,0.3425,0.336,0.346,0.353,0.347,0.35,0.3635,0.3685,0.3585,0.359,0.354,0.3465,0.3475,0.3535,0.362,0.353,0.344,0.3455,0.3465,0.349,0.352,0.3515,0.353,0.353,0.347,0.351,0.364,0.3785,0.38,0.3805,0.3815,0.3705,0.3675,0.3725,0.3735,0.374,0.375,0.3655,0.36,0.3635,0.3655,0.366,0.369,0.3785,0.3825,0.39,0.398,0.3995,0.401,0.4005,0.4155,0.426,0.417,0.424,0.425,0.4175,0.42,0.426,0.4345,0.4285,0.4235,0.425,0.42,0.418,0.4145,0.418,0.432,0.4325,0.432,0.4395,0.441,0.436,0.426,0.422,0.42,0.416,0.418,0.4175,0.413,0.4105,0.408,0.399,0.3865,0.383,0.388,0.3935,0.3885,0.382,0.3795,0.37,0.364,0.3585,0.3525,0.348,0.346,0.361,0.3625,0.341,0.3445,0.3635,0.363,0.3605,0.352,0.339,0.337,0.341,0.3435,0.35,0.3475,0.3335,0.346,0.3555,0.3545,0.347,0.33,0.3275,0.323,0.3245,0.3295,0.3255,0.319,0.323,0.338,0.336,0.3275,0.3265,0.3285,0.3315,0.335,0.3355,0.3285,0.3175,0.3225,0.331,0.334,0.335,0.322,0.3275,0.3385,0.334,0.3285,0.33,0.3365,0.337,0.3305,0.325,0.3185,0.3105,0.306,0.2985,0.292,0.2835,0.277,0.2745,0.273,0.2745,0.2695,0.2715,0.273,0.274,0.2875,0.3025,0.3075,0.3095,0.3225,0.3345,0.3645,0.3945,0.412,0.43,0.438,0.4505,0.4805,0.5265,0.569,0.6185,0.6645,0.6985,0.7435,0.7825,0.8175,0.85,0.864,0.8775,0.8695,0.84,0.8,0.75,0.6975,0.63,0.5615,0.5115,0.4585,0.401,0.373,0.3495,0.335,0.3285,0.2985,0.274,0.2605,0.251,0.2505,0.243,0.232,0.2305,0.23,0.23,0.2305,0.2325,0.2435,0.25,0.262,0.279,0.274,0.259,0.259,0.2725,0.2745,0.281,0.294,0.2975,0.303,0.311,0.3275,0.3375,0.338,0.3395,0.341,0.344,0.3455,0.3475,0.353,0.348,0.345,0.354,0.351,0.352,0.36,0.365,0.3625,0.36,0.3615,0.356,0.358,0.3605,0.3625,0.364,0.3675,0.36,0.3605,0.3705,0.362,0.3715,0.3725,0.3525,0.3545,0.3615,0.3615,0.3545,0.352,0.356,0.3555,0.3575,0.364,0.3665,0.3675,0.3655,0.359,0.357,0.3595,0.3625,0.36,0.358,0.358,0.3565,0.361,0.3675,0.365,0.364,0.364,0.3585,0.356,0.359,0.36,0.358,0.358,0.3645,0.3755,0.381,0.3835,0.3805,0.376,0.3665,0.3625,0.3605,0.352,0.3635,0.3675,0.3645,0.365,0.3605,0.3635,0.3565,0.3535,0.3685,0.3785,0.3725,0.368,0.3785,0.382,0.383,0.38,0.378,0.3785,0.3755,0.3755,0.3625,0.3575,0.367,0.366,0.37,0.3685,0.3785,0.3905,0.392,0.4015,0.401,0.394,0.3855,0.383,0.381,0.3775,0.3725,0.372,0.3715,0.3725,0.382,0.375,0.3705,0.3735,0.383,0.401,0.4095,0.402,0.3935,0.3935,0.391,0.39,0.397,0.4025,0.4035,0.393,0.3915,0.395,0.3965,0.404,0.397,0.3935,0.3975,0.402,0.4035,0.4085,0.4115,0.3995,0.398,0.4045,0.404,0.413,0.4225,0.428,0.423,0.4165,0.4215,0.42,0.416,0.412,0.413,0.4145,0.413,0.4055,0.412,0.437,0.4555,0.458,0.4485,0.4395,0.438,0.4415,0.446,0.455,0.449,0.448,0.453,0.451,0.456,0.455,0.4525,0.448,0.4545,0.467,0.4655,0.465,0.4685,0.477,0.478,0.4765,0.487,0.4835,0.4765,0.4875,0.494,0.489,0.4855,0.496,0.503,0.496,0.489,0.486,0.488,0.487,0.483,0.4945,0.4935,0.4925,0.5015,0.501,0.5065,0.503,0.5035,0.5115,0.5105,0.5065,0.501,0.499,0.497,0.491,0.4885,0.487,0.486,0.4875,0.496,0.5035,0.5005,0.504,0.5105,0.5085,0.5025,0.5005,0.5015,0.4915,0.48,0.481,0.485,0.483,0.479,0.4775,0.4755,0.4665,0.4685,0.466,0.4565,0.452,0.456,0.4615,0.4515,0.4475,0.4415,0.437,0.443,0.448,0.4445,0.439,0.4315,0.4195,0.414,0.4075,0.405,0.41,0.4045,0.4,0.401,0.4005,0.3855,0.391,0.416,0.4085,0.405,0.402,0.389,0.388,0.39,0.39,0.382,0.3695,0.3715,0.37,0.374,0.3825,0.375,0.371,0.363,0.3575,0.362,0.3675,0.37,0.361,0.3635,0.386,0.389,0.381,0.373,0.3665,0.363,0.357,0.3585,0.357,0.356,0.3515,0.3485,0.351,0.347,0.3505,0.3515,0.3545,0.364,0.3665,0.36,0.356,0.3595,0.357,0.359,0.357,0.349,0.357,0.357,0.3505,0.352,0.3535,0.3545,0.352,0.346,0.342,0.347,0.3515,0.363,0.3635,0.352,0.3535,0.351,0.352,0.353,0.3535,0.357,0.3455,0.3375,0.345,0.34,0.3315,0.342,0.3465,0.3465,0.347,0.352,0.355,0.347,0.3475,0.3495,0.3585,0.3605,0.3555,0.365,0.361,0.3425,0.335,0.332,0.3345,0.3495,0.36,0.3555,0.346,0.347,0.3475,0.352,0.356,0.3525,0.3565,0.36,0.355,0.354,0.353,0.3475,0.345,0.346,0.3455,0.336,0.338,0.338,0.332,0.3375,0.34,0.3515,0.3585,0.3535,0.352,0.355,0.3595,0.3535,0.355,0.3565,0.3465,0.3425,0.334,0.3375,0.343,0.337,0.336,0.3335,0.33,0.333,0.3395,0.3375,0.3375,0.343,0.3425,0.3425,0.343,0.35,1.0
0.3595,0.359,0.354,0.3475,0.349,0.3555,0.355,0.354,0.362,0.367,0.365,0.3615,0.358,0.362,0.3615,0.36,0.3565,0.3515,0.357,0.35,0.3495,0.3525,0.3435,0.3415,0.3445,0.3445,0.347,0.356,0.347,0.34,0.3595,0.369,0.367,0.3695,0.364,0.3615,0.3625,0.3585,0.366,0.378,0.3715,0.3685,0.369,0.3655,0.365,0.363,0.362,0.366,0.3675,0.37,0.377,0.377,0.378,0.382,0.3835,0.3915,0.3875,0.3755,0.389,0.39,0.387,0.382,0.376,0.381,0.38,0.384,0.384,0.3865,0.3935,0.4005,0.405,0.4205,0.431,0.4285,0.4315,0.431,0.4415,0.449,0.445,0.4355,0.4295,0.4295,0.4295,0.437,0.4435,0.444,0.439,0.435,0.4375,0.445,0.4435,0.439,0.4435,0.4415,0.444,0.458,0.455,0.4475,0.4485,0.443,0.439,0.4255,0.4185,0.422,0.4125,0.4185,0.4215,0.4125,0.4095,0.4015,0.3895,0.389,0.396,0.395,0.3855,0.3795,0.3765,0.38,0.38,0.3695,0.3635,0.367,0.3775,0.381,0.367,0.3575,0.354,0.348,0.343,0.344,0.362,0.373,0.3655,0.363,0.363,0.3635,0.368,0.3645,0.359,0.3575,0.355,0.3495,0.341,0.343,0.3475,0.35,0.3545,0.3515,0.346,0.3405,0.3415,0.351,0.352,0.346,0.3555,0.3575,0.359,0.3665,0.361,0.3595,0.3565,0.3505,0.3485,0.344,0.344,0.3395,0.3355,0.339,0.3315,0.328,0.337,0.331,0.3195,0.308,0.2935,0.2875,0.291,0.296,0.2865,0.282,0.29,0.298,0.2985,0.3045,0.3125,0.312,0.324,0.334,0.3405,0.362,0.399,0.429,0.456,0.465,0.477,0.526,0.5745,0.62,0.653,0.685,0.7275,0.767,0.8025,0.835,0.8555,0.8715,0.8885,0.881,0.851,0.819,0.7895,0.733,0.661,0.595,0.5415,0.499,0.4515,0.419,0.4025,0.3905,0.378,0.3475,0.3155,0.296,0.276,0.263,0.2545,0.245,0.239,0.246,0.2565,0.263,0.275,0.2785,0.2845,0.293,0.3005,0.309,0.309,0.3055,0.306,0.306,0.2985,0.3095,0.319,0.319,0.331,0.3415,0.345,0.3425,0.3475,0.3535,0.361,0.3575,0.3545,0.3675,0.3715,0.374,0.37,0.376,0.3795,0.377,0.3805,0.372,0.3685,0.3655,0.3635,0.37,0.374,0.373,0.37,0.3715,0.3735,0.374,0.374,0.373,0.378,0.378,0.3735,0.377,0.3705,0.3615,0.3645,0.3595,0.363,0.364,0.3645,0.3745,0.37,0.367,0.3665,0.3725,0.382,0.396,0.3995,0.3895,0.383,0.3805,0.3885,0.38,0.38,0.385,0.3715,0.3765,0.3775,0.3735,0.376,0.3725,0.374,0.3805,0.385,0.386,0.384,0.383,0.381,0.3825,0.3835,0.382,0.3765,0.3735,0.3745,0.3745,0.383,0.384,0.378,0.3845,0.3865,0.3775,0.3775,0.3845,0.3885,0.388,0.3875,0.3885,0.393,0.394,0.392,0.3945,0.3905,0.383,0.374,0.369,0.3725,0.3915,0.3935,0.3865,0.392,0.3885,0.39,0.3895,0.3925,0.4,0.4015,0.404,0.403,0.4005,0.3975,0.4015,0.402,0.394,0.396,0.397,0.3855,0.374,0.3845,0.4005,0.4,0.3935,0.39,0.395,0.402,0.4065,0.41,0.4005,0.4,0.4165,0.4185,0.4205,0.425,0.4185,0.415,0.41,0.407,0.4035,0.401,0.4025,0.4075,0.413,0.4095,0.4105,0.4155,0.423,0.4265,0.431,0.445,0.4495,0.4455,0.4395,0.4395,0.448,0.4445,0.44,0.4335,0.427,0.434,0.4345,0.4395,0.446,0.4435,0.442,0.452,0.462,0.4675,0.469,0.4665,0.4755,0.477,0.475,0.478,0.4795,0.4735,0.4625,0.4655,0.469,0.466,0.473,0.471,0.473,0.484,0.4795,0.483,0.4905,0.4915,0.4985,0.5075,0.499,0.4935,0.506,0.5105,0.507,0.5055,0.5045,0.4995,0.501,0.5115,0.517,0.5195,0.5155,0.508,0.503,0.5105,0.5235,0.526,0.52,0.5225,0.531,0.516,0.508,0.5075,0.5095,0.5145,0.505,0.5125,0.517,0.5145,0.521,0.5135,0.5115,0.517,0.5135,0.516,0.5225,0.5215,0.5225,0.521,0.509,0.5085,0.51,0.504,0.499,0.495,0.4985,0.501,0.487,0.476,0.472,0.4685,0.474,0.471,0.466,0.468,0.463,0.462,0.466,0.47,0.464,0.463,0.457,0.445,0.4405,0.4265,0.4335,0.4445,0.429,0.417,0.4205,0.4175,0.4125,0.416,0.4115,0.4085,0.4135,0.405,0.3955,0.402,0.4115,0.4205,0.4135,0.4005,0.4005,0.402,0.3945,0.388,0.3815,0.376,0.3795,0.3785,0.3745,0.3695,0.368,0.3895,0.392,0.3795,0.3815,0.3835,0.394,0.397,0.393,0.391,0.388,0.381,0.374,0.3725,0.3645,0.3595,0.3585,0.3605,0.369,0.379,0.3795,0.3775,0.3865,0.387,0.3835,0.3815,0.3785,0.378,0.381,0.3795,0.3765,0.376,0.3675,0.362,0.3645,0.375,0.376,0.366,0.3585,0.358,0.3685,0.3725,0.3735,0.377,0.369,0.3625,0.369,0.3685,0.3655,0.371,0.374,0.3755,0.369,0.3645,0.3535,0.346,0.361,0.364,0.3545,0.353,0.359,0.359,0.359,0.365,0.366,0.365,0.3685,0.3745,0.3635,0.3605,0.379,0.373,0.362,0.361,0.3565,0.353,0.354,0.3585,0.3615,0.3665,0.367,0.3585,0.357,0.3675,0.368,0.3675,0.37,0.363,0.366,0.3635,0.3595,0.3645,0.3645,0.3625,0.3565,0.354,0.355,0.3535,0.348,0.3515,0.3585,0.361,0.364,0.3745,0.3695,0.3465,0.3515,0.361,0.349,0.3565,0.3745,0.366,0.358,0.352,0.35,0.3525,0.3525,0.357,0.3405,0.3325,0.34,0.346,1.0
0.3435,0.338,0.334,0.349,0.3585,0.353,0.35,0.356,0.36,0.359,0.365,0.366,0.3645,0.3575,0.3485,0.3495,0.3455,0.3505,0.3525,0.3385,0.337,0.342,0.3385,0.3385,0.3445,0.339,0.3355,0.34,0.34,0.336,0.3485,0.36,0.3535,0.346,0.3495,0.353,0.3425,0.35,0.3525,0.3465,0.349,0.358,0.3645,0.3645,0.3765,0.3735,0.3695,0.375,0.377,0.3775,0.375,0.379,0.3745,0.3715,0.381,0.374,0.374,0.379,0.3755,0.375,0.3725,0.372,0.3665,0.3695,0.377,0.3805,0.388,0.3875,0.388,0.39,0.3915,0.4125,0.43,0.418,0.4175,0.4195,0.4155,0.42,0.422,0.422,0.4215,0.425,0.424,0.4285,0.437,0.437,0.4315,0.4305,0.44,0.4425,0.439,0.4375,0.439,0.437,0.436,0.441,0.436,0.432,0.432,0.4235,0.42,0.422,0.4325,0.4305,0.418,0.419,0.4215,0.4185,0.406,0.395,0.386,0.386,0.3805,0.364,0.3665,0.3685,0.3665,0.3645,0.357,0.3575,0.358,0.3495,0.348,0.3515,0.344,0.345,0.3495,0.3505,0.3495,0.3485,0.356,0.3525,0.3425,0.342,0.343,0.3405,0.3395,0.344,0.352,0.347,0.3415,0.3475,0.35,0.342,0.3375,0.3435,0.338,0.333,0.3405,0.347,0.351,0.3485,0.343,0.3415,0.342,0.3345,0.326,0.326,0.326,0.336,0.346,0.341,0.332,0.3245,0.3275,0.3285,0.331,0.3335,0.33,0.323,0.31,0.309,0.297,0.284,0.282,0.2785,0.2865,0.287,0.2775,0.271,0.276,0.272,0.2645,0.2885,0.3155,0.324,0.3285,0.341,0.3475,0.357,0.377,0.396,0.4215,0.4435,0.456,0.474,0.5185,0.571,0.611,0.6545,0.692,0.7335,0.7865,0.821,0.849,0.882,0.903,0.903,0.8905,0.8635,0.814,0.7585,0.6965,0.6225,0.559,0.5055,0.457,0.4185,0.395,0.381,0.363,0.347,0.3255,0.3035,0.289,0.2675,0.2585,0.2455,0.2335,0.237,0.2315,0.226,0.228,0.2395,0.2535,0.2705,0.276,0.2785,0.286,0.284,0.284,0.278,0.283,0.3005,0.3045,0.312,0.323,0.3335,0.3445,0.3435,0.3415,0.342,0.344,0.3415,0.3425,0.348,0.355,0.365,0.356,0.3455,0.353,0.356,0.358,0.3645,0.371,0.3735,0.374,0.369,0.362,0.3675,0.3655,0.3605,0.362,0.362,0.359,0.354,0.3505,0.3455,0.338,0.3405,0.35,0.3585,0.3585,0.364,0.3795,0.376,0.3695,0.3715,0.3705,0.3665,0.362,0.365,0.37,0.371,0.374,0.3645,0.3525,0.3555,0.355,0.36,0.357,0.356,0.368,0.368,0.3665,0.3685,0.3755,0.3765,0.374,0.368,0.37,0.379,0.3745,0.3775,0.381,0.3765,0.375,0.3635,0.361,0.3625,0.36,0.3635,0.365,0.3675,0.3745,0.3775,0.375,0.38,0.38,0.3745,0.373,0.376,0.373,0.3705,0.372,0.374,0.373,0.37,0.376,0.38,0.3735,0.372,0.3775,0.3745,0.3755,0.373,0.3785,0.391,0.385,0.379,0.387,0.39,0.3845,0.3875,0.373,0.363,0.3645,0.373,0.393,0.3845,0.3615,0.353,0.367,0.3835,0.391,0.388,0.3975,0.4115,0.403,0.401,0.4015,0.406,0.4055,0.404,0.4045,0.3905,0.3985,0.4075,0.401,0.3925,0.386,0.3925,0.407,0.41,0.397,0.396,0.4015,0.4115,0.4125,0.4135,0.4235,0.4255,0.4205,0.413,0.416,0.421,0.417,0.4135,0.4145,0.414,0.4145,0.415,0.4175,0.4255,0.4355,0.4405,0.438,0.439,0.4355,0.4315,0.44,0.445,0.4465,0.45,0.457,0.4575,0.4495,0.4485,0.4475,0.4505,0.459,0.457,0.456,0.4625,0.466,0.464,0.4715,0.474,0.477,0.4885,0.488,0.4865,0.4825,0.4725,0.4675,0.463,0.472,0.482,0.478,0.4935,0.501,0.493,0.4935,0.5045,0.5125,0.508,0.4995,0.498,0.505,0.5115,0.513,0.513,0.5135,0.517,0.5205,0.504,0.499,0.501,0.491,0.488,0.4935,0.502,0.5015,0.502,0.495,0.501,0.524,0.5165,0.5055,0.507,0.503,0.4995,0.4915,0.4845,0.4865,0.484,0.484,0.4795,0.474,0.472,0.47,0.477,0.474,0.4705,0.4775,0.481,0.4835,0.476,0.462,0.4585,0.45,0.449,0.4545,0.4455,0.4435,0.445,0.444,0.4345,0.428,0.422,0.422,0.4205,0.4085,0.408,0.399,0.4045,0.4185,0.424,0.4055,0.396,0.4055,0.396,0.4095,0.4105,0.4095,0.4115,0.392,0.386,0.3795,0.3755,0.3755,0.385,0.388,0.376,0.366,0.366,0.38,0.385,0.388,0.3825,0.3635,0.363,0.3805,0.3795,0.3705,0.3795,0.37,0.359,0.366,0.361,0.36,0.366,0.363,0.366,0.362,0.3625,0.3655,0.3575,0.3575,0.3545,0.36,0.365,0.3635,0.366,0.36,0.3585,0.3515,0.3505,0.3565,0.3535,0.364,0.3545,0.339,0.347,0.3585,0.3615,0.3585,0.3555,0.3605,0.373,0.364,0.355,0.346,0.338,0.3445,0.3445,0.3385,0.345,0.3575,0.3575,0.3605,0.3545,0.355,0.3585,0.357,0.354,0.3535,0.357,0.3565,0.3695,0.3635,0.353,0.3485,0.341,0.341,0.355,0.365,0.3485,0.342,0.3395,0.337,0.3435,0.352,0.347,0.343,0.3565,0.356,0.357,0.3545,0.339,0.343,0.3455,0.341,0.336,0.3275,0.3375,0.35,0.3555,0.3615,0.367,0.3665,0.35,0.3465,0.3485,0.3435,0.352,0.3605,0.3625,0.3605,0.355,0.356,0.351,0.349,0.3505,0.337,0.335,0.3405,0.3355,0.329,0.3335,0.332,0.326,0.3395,0.341,0.335,0.344,0.354,0.3515,0.344,0.3355,0.3375,1.0
0.336,0.3345,0.3425,0.3465,0.349,0.3495,0.342,0.3435,0.3435,0.347,0.347,0.3405,0.3365,0.324,0.318,0.326,0.3295,0.328,0.324,0.327,0.3375,0.3455,0.3395,0.3265,0.3285,0.3335,0.346,0.345,0.3445,0.3475,0.3375,0.336,0.339,0.339,0.3315,0.3415,0.3565,0.354,0.3515,0.3535,0.3425,0.347,0.353,0.3475,0.347,0.337,0.3385,0.351,0.3585,0.3525,0.3495,0.352,0.3545,0.35,0.3505,0.364,0.3575,0.3595,0.372,0.3645,0.355,0.364,0.368,0.367,0.3705,0.3725,0.386,0.3875,0.3855,0.3905,0.3845,0.3925,0.405,0.402,0.3945,0.388,0.3845,0.393,0.395,0.3895,0.4,0.4095,0.4165,0.415,0.4125,0.4155,0.4195,0.422,0.414,0.42,0.4225,0.399,0.403,0.413,0.4075,0.407,0.404,0.4135,0.4205,0.4185,0.413,0.414,0.406,0.404,0.418,0.4055,0.394,0.388,0.3805,0.37,0.373,0.388,0.3675,0.347,0.3445,0.334,0.329,0.3235,0.329,0.336,0.332,0.341,0.3485,0.348,0.344,0.348,0.3545,0.356,0.349,0.3385,0.3305,0.3265,0.3235,0.319,0.325,0.3205,0.311,0.318,0.3275,0.325,0.329,0.3225,0.316,0.3255,0.325,0.323,0.3245,0.3345,0.3255,0.3185,0.3205,0.3205,0.339,0.325,0.313,0.32,0.3155,0.325,0.3295,0.331,0.3235,0.3115,0.313,0.3055,0.3145,0.3245,0.318,0.313,0.307,0.303,0.2965,0.2945,0.2865,0.276,0.264,0.236,0.213,0.2175,0.237,0.2445,0.2465,0.2515,0.262,0.292,0.312,0.3065,0.2915,0.2965,0.3125,0.334,0.3655,0.3855,0.4025,0.416,0.428,0.4425,0.4725,0.5215,0.572,0.62,0.665,0.7045,0.756,0.8065,0.8405,0.864,0.8605,0.8485,0.833,0.8015,0.7675,0.708,0.633,0.558,0.4925,0.4535,0.4005,0.351,0.3325,0.3075,0.291,0.2755,0.2505,0.241,0.222,0.204,0.1955,0.182,0.192,0.1975,0.1965,0.198,0.1895,0.1995,0.207,0.215,0.228,0.2335,0.239,0.227,0.2175,0.231,0.242,0.2605,0.272,0.2695,0.2785,0.2935,0.298,0.3045,0.3345,0.336,0.3145,0.312,0.313,0.32,0.321,0.3155,0.3165,0.322,0.323,0.3185,0.3245,0.331,0.3325,0.339,0.339,0.3255,0.347,0.3675,0.3565,0.3495,0.3375,0.3405,0.3465,0.3405,0.336,0.3305,0.328,0.3265,0.3305,0.335,0.3365,0.3375,0.341,0.352,0.35,0.3505,0.3525,0.3555,0.3565,0.348,0.341,0.337,0.3425,0.341,0.3395,0.3315,0.3315,0.3395,0.339,0.3335,0.3235,0.3375,0.347,0.3375,0.3365,0.3335,0.3325,0.342,0.347,0.352,0.3455,0.3355,0.3385,0.339,0.3365,0.346,0.357,0.3515,0.3455,0.354,0.357,0.357,0.358,0.359,0.362,0.354,0.3515,0.35,0.34,0.337,0.337,0.3485,0.3575,0.344,0.337,0.348,0.3575,0.357,0.3545,0.357,0.3535,0.3545,0.3605,0.359,0.3585,0.3635,0.374,0.3775,0.3675,0.362,0.357,0.352,0.363,0.362,0.354,0.35,0.3555,0.365,0.368,0.3675,0.3655,0.38,0.3795,0.3685,0.377,0.378,0.365,0.367,0.3765,0.3795,0.383,0.379,0.375,0.368,0.365,0.3705,0.3675,0.365,0.3815,0.3895,0.381,0.3895,0.3945,0.389,0.384,0.3915,0.394,0.3885,0.39,0.391,0.398,0.3945,0.3875,0.3865,0.3865,0.396,0.4085,0.4145,0.41,0.406,0.408,0.412,0.412,0.415,0.43,0.4385,0.4395,0.429,0.434,0.4395,0.4235,0.426,0.424,0.4215,0.4315,0.4375,0.441,0.44,0.4395,0.4465,0.4525,0.45,0.4495,0.4525,0.4595,0.4635,0.4675,0.464,0.4585,0.4635,0.4665,0.467,0.465,0.4745,0.475,0.462,0.4665,0.468,0.47,0.4765,0.474,0.482,0.486,0.493,0.501,0.497,0.499,0.502,0.5015,0.494,0.49,0.4895,0.488,0.49,0.4875,0.4805,0.48,0.488,0.492,0.4975,0.4905,0.482,0.4855,0.4955,0.4975,0.4885,0.49,0.482,0.478,0.4795,0.4835,0.482,0.4735,0.48,0.4785,0.471,0.471,0.4605,0.4595,0.468,0.465,0.4595,0.444,0.4395,0.44,0.4415,0.454,0.454,0.451,0.45,0.4485,0.444,0.4395,0.43,0.425,0.4285,0.421,0.4075,0.401,0.4055,0.408,0.4085,0.409,0.3995,0.3925,0.3935,0.3935,0.393,0.3875,0.3785,0.373,0.377,0.3825,0.379,0.3745,0.372,0.3655,0.353,0.346,0.3585,0.3565,0.345,0.3585,0.3665,0.3615,0.358,0.361,0.3695,0.367,0.3575,0.3535,0.3425,0.344,0.3495,0.3405,0.3345,0.3295,0.3385,0.342,0.3465,0.355,0.3575,0.3585,0.3575,0.3615,0.362,0.3565,0.35,0.348,0.3385,0.336,0.342,0.3425,0.335,0.3285,0.338,0.3355,0.329,0.3365,0.342,0.339,0.338,0.3425,0.334,0.3305,0.3405,0.3525,0.3485,0.3365,0.3435,0.339,0.3365,0.338,0.338,0.3465,0.3465,0.342,0.322,0.3175,0.3275,0.329,0.3295,0.334,0.337,0.3285,0.333,0.334,0.33,0.341,0.335,0.329,0.338,0.3375,0.3375,0.333,0.3315,0.3265,0.3155,0.311,0.308,0.322,0.3355,0.341,0.3365,0.3285,0.3345,0.337,0.3335,0.3275,0.331,0.3305,0.3165,0.3115,0.32,0.324,0.321,0.3265,0.334,0.3375,0.3355,0.3385,0.3425,0.3345,0.328,0.328,0.3385,0.339,0.331,0.331,0.331,0.3225,0.319,0.325,0.3135,0.308,0.3205,0.324,0.323,0.325,0.3255,0.326,0.3275,0.3275,0.328,0.334,0.3485,0.3395,0.3315,0.3275,1.0
0.335,0.343,0.3455,0.3545,0.3555,0.344,0.348,0.3585,0.3545,0.3485,0.3495,0.3375,0.3335,0.3405,0.338,0.3335,0.3265,0.3255,0.331,0.3415,0.3525,0.347,0.3435,0.337,0.331,0.337,0.342,0.3455,0.3415,0.3315,0.3235,0.322,0.3245,0.33,0.329,0.327,0.341,0.349,0.3485,0.3525,0.355,0.3605,0.372,0.3755,0.364,0.3475,0.35,0.349,0.3335,0.3515,0.366,0.3585,0.3585,0.3555,0.361,0.36,0.359,0.369,0.3635,0.3595,0.3595,0.3645,0.3675,0.3585,0.3635,0.363,0.367,0.3755,0.3765,0.381,0.391,0.394,0.382,0.3875,0.3945,0.4035,0.412,0.4045,0.4,0.3965,0.397,0.4125,0.416,0.4045,0.4075,0.4125,0.42,0.42,0.406,0.4105,0.418,0.4205,0.4185,0.4095,0.3965,0.404,0.4295,0.437,0.4375,0.435,0.4325,0.438,0.439,0.434,0.4345,0.4335,0.423,0.412,0.3955,0.3905,0.385,0.3735,0.367,0.3445,0.328,0.327,0.322,0.325,0.332,0.3365,0.3435,0.348,0.347,0.3475,0.359,0.362,0.353,0.353,0.351,0.346,0.3365,0.3325,0.3435,0.3455,0.3435,0.3405,0.3325,0.3345,0.336,0.3355,0.338,0.3385,0.3435,0.336,0.324,0.321,0.3235,0.333,0.333,0.3345,0.332,0.3245,0.3195,0.3265,0.332,0.326,0.3275,0.3235,0.3215,0.3275,0.3315,0.3275,0.3355,0.3445,0.3355,0.332,0.342,0.345,0.3205,0.3035,0.3065,0.308,0.293,0.2755,0.2655,0.263,0.2645,0.2645,0.2645,0.258,0.2635,0.263,0.263,0.274,0.2925,0.3065,0.309,0.312,0.321,0.333,0.34,0.3625,0.3945,0.427,0.4355,0.4345,0.4645,0.5205,0.5795,0.615,0.6565,0.707,0.7465,0.788,0.8145,0.8375,0.861,0.8615,0.8535,0.8355,0.7985,0.7515,0.6865,0.6205,0.561,0.5055,0.4565,0.419,0.386,0.3565,0.349,0.335,0.3195,0.305,0.278,0.249,0.226,0.236,0.225,0.2145,0.224,0.215,0.219,0.222,0.23,0.247,0.2585,0.259,0.2605,0.264,0.2705,0.271,0.2655,0.273,0.2785,0.3005,0.3105,0.3105,0.3235,0.34,0.3445,0.3285,0.332,0.3395,0.3385,0.339,0.338,0.3435,0.3415,0.3385,0.3395,0.3415,0.3475,0.3485,0.3505,0.3465,0.3515,0.3585,0.362,0.358,0.3425,0.3315,0.329,0.347,0.348,0.338,0.34,0.336,0.333,0.337,0.3415,0.346,0.3495,0.3495,0.3555,0.3545,0.348,0.352,0.352,0.348,0.3405,0.3365,0.341,0.337,0.338,0.3485,0.3565,0.354,0.344,0.336,0.3315,0.342,0.354,0.3525,0.3495,0.353,0.348,0.348,0.36,0.3545,0.356,0.3585,0.3535,0.35,0.3435,0.341,0.3465,0.3515,0.348,0.35,0.353,0.3545,0.3585,0.371,0.3705,0.3655,0.3655,0.353,0.3535,0.3625,0.3655,0.371,0.364,0.36,0.3585,0.342,0.344,0.344,0.351,0.3605,0.357,0.3655,0.368,0.3685,0.374,0.3775,0.374,0.3715,0.3685,0.359,0.3525,0.3555,0.365,0.3635,0.3575,0.368,0.3765,0.3745,0.376,0.3725,0.3605,0.361,0.3715,0.3805,0.3815,0.3735,0.382,0.389,0.3835,0.3775,0.3725,0.372,0.3675,0.3675,0.3705,0.369,0.369,0.367,0.374,0.3835,0.388,0.392,0.388,0.396,0.401,0.411,0.4115,0.4025,0.403,0.3915,0.389,0.386,0.387,0.3965,0.392,0.391,0.407,0.41,0.4015,0.4075,0.416,0.413,0.412,0.4225,0.433,0.4295,0.416,0.4315,0.4405,0.431,0.429,0.4245,0.4225,0.414,0.414,0.4245,0.4355,0.4455,0.4415,0.4415,0.4395,0.4335,0.441,0.4465,0.4495,0.463,0.474,0.469,0.462,0.4645,0.467,0.4575,0.4515,0.456,0.4615,0.4605,0.4585,0.467,0.4675,0.464,0.474,0.4755,0.4755,0.4845,0.491,0.493,0.497,0.4995,0.4925,0.488,0.487,0.485,0.4845,0.4865,0.4855,0.487,0.4815,0.4775,0.48,0.4785,0.4775,0.474,0.4715,0.471,0.4895,0.5085,0.505,0.487,0.481,0.492,0.4925,0.4815,0.49,0.5015,0.489,0.477,0.4655,0.4705,0.4735,0.4675,0.475,0.476,0.471,0.466,0.4645,0.462,0.457,0.457,0.451,0.441,0.445,0.4445,0.4275,0.4255,0.4235,0.416,0.42,0.422,0.42,0.4235,0.4225,0.419,0.4165,0.4055,0.3965,0.3965,0.396,0.397,0.396,0.388,0.396,0.4,0.392,0.3885,0.3855,0.384,0.3855,0.384,0.3725,0.3735,0.373,0.372,0.3775,0.379,0.362,0.3525,0.3685,0.3665,0.355,0.3435,0.337,0.3435,0.353,0.349,0.346,0.3575,0.3535,0.3495,0.355,0.349,0.358,0.37,0.3615,0.349,0.354,0.363,0.3555,0.3545,0.36,0.356,0.349,0.3515,0.3515,0.342,0.3325,0.3335,0.3435,0.344,0.355,0.3615,0.356,0.353,0.3455,0.343,0.3505,0.3595,0.3595,0.3585,0.355,0.3455,0.3335,0.327,0.3325,0.3355,0.3365,0.3455,0.357,0.359,0.3575,0.3555,0.3455,0.3395,0.3375,0.344,0.3405,0.333,0.3455,0.3475,0.347,0.3635,0.37,0.369,0.3605,0.3525,0.3515,0.3425,0.344,0.348,0.358,0.354,0.343,0.348,0.353,0.3535,0.3525,0.352,0.351,0.357,0.36,0.3575,0.349,0.339,0.3325,0.331,0.338,0.3415,0.3425,0.342,0.3395,0.3445,0.3525,0.3515,0.3465,0.3485,0.341,0.3335,0.3415,0.3445,0.3375,0.338,0.3425,0.3355,0.3375,0.3335,0.3355,0.337,0.3375,0.3425,0.335,0.345,0.343,0.336,0.3505,0.362,0.3595,0.349,0.3425,0.352,0.348,0.337,0.3445,1.0
0.345,0.3515,0.343,0.3505,0.3555,0.3535,0.3485,0.3375,0.3445,0.351,0.354,0.355,0.3485,0.34,0.337,0.329,0.3315,0.3345,0.337,0.3435,0.3455,0.3495,0.3505,0.359,0.361,0.352,0.3455,0.351,0.3585,0.359,0.355,0.3545,0.3475,0.336,0.342,0.3545,0.3605,0.3565,0.357,0.363,0.362,0.357,0.344,0.35,0.3615,0.359,0.3605,0.359,0.358,0.3645,0.3545,0.3395,0.344,0.354,0.3585,0.364,0.372,0.3725,0.3875,0.403,0.396,0.3875,0.384,0.377,0.3825,0.389,0.3855,0.3935,0.3985,0.402,0.4,0.388,0.388,0.3955,0.4025,0.413,0.411,0.4175,0.412,0.4055,0.4235,0.4235,0.4255,0.4255,0.422,0.4255,0.426,0.417,0.4,0.403,0.406,0.4015,0.406,0.4185,0.4265,0.4335,0.433,0.423,0.422,0.4195,0.42,0.4205,0.4245,0.4245,0.4205,0.4245,0.4155,0.4005,0.3905,0.3845,0.372,0.3585,0.35,0.351,0.3485,0.348,0.354,0.35,0.358,0.37,0.3705,0.359,0.348,0.3485,0.354,0.3505,0.3485,0.341,0.3405,0.3435,0.3365,0.3485,0.3445,0.333,0.335,0.3385,0.3315,0.3305,0.339,0.331,0.337,0.3455,0.34,0.3375,0.338,0.3395,0.3295,0.3345,0.3615,0.344,0.3205,0.3405,0.3385,0.325,0.331,0.332,0.3305,0.333,0.335,0.332,0.3215,0.317,0.3205,0.325,0.3345,0.33,0.3185,0.3175,0.316,0.3135,0.3045,0.291,0.291,0.2925,0.278,0.2685,0.269,0.264,0.267,0.2725,0.275,0.281,0.2825,0.301,0.3125,0.306,0.3175,0.3265,0.3315,0.352,0.382,0.411,0.4415,0.4505,0.4535,0.4805,0.521,0.5665,0.612,0.6675,0.7105,0.7545,0.7945,0.8205,0.846,0.87,0.8875,0.889,0.8605,0.8075,0.771,0.7165,0.6475,0.5735,0.5155,0.48,0.433,0.399,0.359,0.3465,0.348,0.3265,0.3025,0.2915,0.2745,0.251,0.249,0.2325,0.2215,0.2265,0.2265,0.225,0.2315,0.2425,0.244,0.249,0.2585,0.264,0.2735,0.284,0.289,0.2785,0.283,0.3065,0.3185,0.3325,0.3385,0.3385,0.3405,0.3395,0.334,0.3255,0.3355,0.341,0.3315,0.3355,0.332,0.332,0.334,0.3305,0.3415,0.3375,0.3445,0.359,0.3575,0.3625,0.3605,0.349,0.349,0.3515,0.352,0.3495,0.346,0.364,0.3705,0.3585,0.341,0.3315,0.332,0.3345,0.343,0.3525,0.3595,0.356,0.3545,0.363,0.362,0.3515,0.35,0.349,0.3475,0.341,0.3295,0.3335,0.3315,0.3245,0.3375,0.35,0.3515,0.3465,0.354,0.3655,0.366,0.375,0.3725,0.3645,0.3645,0.353,0.3515,0.349,0.347,0.3605,0.354,0.3505,0.3595,0.354,0.3495,0.349,0.348,0.35,0.356,0.367,0.3685,0.366,0.3715,0.3715,0.366,0.359,0.359,0.366,0.3595,0.3405,0.337,0.351,0.358,0.3635,0.3615,0.349,0.3455,0.3525,0.358,0.3635,0.362,0.354,0.3755,0.3895,0.385,0.3735,0.3665,0.3725,0.3675,0.359,0.3555,0.3665,0.3695,0.3685,0.3655,0.3585,0.3615,0.363,0.3785,0.382,0.374,0.3795,0.3855,0.391,0.3935,0.3945,0.404,0.4025,0.3885,0.382,0.382,0.383,0.3795,0.3785,0.383,0.383,0.3785,0.378,0.3875,0.3905,0.394,0.3925,0.3885,0.398,0.4,0.401,0.402,0.4035,0.4015,0.394,0.395,0.394,0.403,0.4135,0.4065,0.401,0.399,0.398,0.4015,0.416,0.4225,0.4275,0.444,0.437,0.436,0.4475,0.436,0.4325,0.443,0.43,0.4135,0.418,0.4145,0.4215,0.435,0.4355,0.443,0.4515,0.459,0.4505,0.4495,0.4615,0.4765,0.483,0.4735,0.472,0.4705,0.478,0.473,0.468,0.473,0.472,0.4685,0.472,0.479,0.478,0.477,0.481,0.4895,0.4865,0.4855,0.495,0.491,0.4855,0.488,0.493,0.501,0.5035,0.504,0.4945,0.485,0.491,0.4885,0.4795,0.479,0.489,0.498,0.498,0.4975,0.5065,0.506,0.5015,0.503,0.4985,0.494,0.488,0.481,0.476,0.473,0.4785,0.485,0.4845,0.473,0.468,0.472,0.477,0.477,0.469,0.473,0.464,0.453,0.454,0.4495,0.4485,0.447,0.4465,0.4455,0.447,0.4515,0.4465,0.4475,0.452,0.452,0.4485,0.437,0.438,0.4105,0.386,0.4005,0.4015,0.416,0.426,0.412,0.4015,0.3935,0.392,0.393,0.395,0.3975,0.398,0.3865,0.37,0.36,0.3575,0.356,0.3545,0.3515,0.3585,0.3745,0.3735,0.3805,0.3735,0.364,0.3725,0.3695,0.3635,0.36,0.3565,0.345,0.3305,0.342,0.358,0.3515,0.351,0.3515,0.3515,0.349,0.348,0.3505,0.351,0.3585,0.3565,0.3595,0.3635,0.3625,0.363,0.3625,0.362,0.3575,0.353,0.3475,0.337,0.3325,0.3355,0.336,0.3365,0.337,0.333,0.328,0.332,0.3475,0.357,0.352,0.3535,0.35,0.342,0.3525,0.362,0.3555,0.35,0.357,0.362,0.357,0.346,0.332,0.3325,0.3415,0.342,0.3315,0.3295,0.3355,0.334,0.335,0.3365,0.351,0.357,0.3405,0.341,0.3405,0.329,0.331,0.3385,0.3335,0.3305,0.3185,0.3165,0.3425,0.3415,0.3345,0.3445,0.341,0.3325,0.3355,0.344,0.3395,0.344,0.356,0.3475,0.3415,0.3275,0.32,0.3285,0.3285,0.3245,0.307,0.3145,0.3375,0.3385,0.3395,0.346,0.3475,0.3455,0.3455,0.344,0.346,0.3505,0.352,0.345,0.3365,0.333,0.325,0.3295,0.334,0.3335,0.3305,0.318,0.309,0.3085,0.318,0.3235,0.3285,0.3335,0.3405,0.346,0.334,0.3335,0.328,0.318,0.3265,1.0
0.3195,0.316,0.3195,0.3275,0.319,0.3105,0.318,0.329,0.3195,0.3175,0.326,0.312,0.2935,0.2995,0.3275,0.336,0.3235,0.3185,0.308,0.3005,0.308,0.312,0.3185,0.322,0.331,0.345,0.339,0.338,0.329,0.31,0.3085,0.3115,0.3115,0.313,0.317,0.324,0.313,0.3075,0.324,0.3245,0.333,0.337,0.3365,0.3405,0.3375,0.3425,0.345,0.3385,0.327,0.3235,0.33,0.3465,0.3495,0.3435,0.3365,0.327,0.3405,0.349,0.3445,0.352,0.3505,0.3525,0.363,0.3605,0.36,0.358,0.3635,0.3695,0.374,0.3715,0.359,0.365,0.3705,0.364,0.3665,0.378,0.38,0.379,0.3825,0.3815,0.3815,0.3755,0.3685,0.3915,0.4115,0.4045,0.4015,0.417,0.43,0.4175,0.399,0.3955,0.3965,0.396,0.404,0.406,0.403,0.4025,0.3975,0.4025,0.4085,0.409,0.3995,0.3955,0.395,0.385,0.3805,0.372,0.3595,0.36,0.3545,0.334,0.3295,0.33,0.325,0.31,0.307,0.318,0.317,0.319,0.315,0.315,0.3215,0.326,0.332,0.332,0.3285,0.3255,0.3235,0.322,0.3215,0.314,0.309,0.322,0.305,0.2795,0.2885,0.2835,0.2815,0.29,0.293,0.295,0.2955,0.3025,0.3085,0.306,0.305,0.3065,0.2995,0.3075,0.318,0.306,0.303,0.2995,0.2905,0.295,0.2995,0.3095,0.303,0.291,0.2955,0.299,0.2905,0.2905,0.294,0.2855,0.2885,0.2845,0.287,0.2805,0.266,0.258,0.253,0.2595,0.2425,0.2385,0.2405,0.233,0.2505,0.252,0.2475,0.257,0.2545,0.2695,0.272,0.259,0.2725,0.2865,0.3035,0.3215,0.3435,0.372,0.4,0.4075,0.4095,0.431,0.4735,0.5335,0.5845,0.625,0.6585,0.7115,0.7725,0.8225,0.8465,0.8535,0.8675,0.865,0.841,0.8025,0.756,0.694,0.6255,0.5365,0.4655,0.428,0.3855,0.354,0.3245,0.311,0.306,0.2815,0.262,0.247,0.221,0.197,0.1905,0.1935,0.186,0.1765,0.171,0.178,0.186,0.194,0.208,0.2135,0.223,0.222,0.2205,0.2275,0.2315,0.2375,0.2535,0.279,0.2875,0.2885,0.2945,0.29,0.3035,0.3175,0.308,0.314,0.3085,0.2965,0.301,0.307,0.3115,0.31,0.312,0.3175,0.321,0.318,0.315,0.315,0.3115,0.32,0.336,0.336,0.3295,0.318,0.319,0.323,0.317,0.321,0.3165,0.3105,0.307,0.298,0.304,0.3025,0.3025,0.321,0.3315,0.3465,0.3455,0.328,0.3445,0.355,0.343,0.3335,0.338,0.3415,0.322,0.3215,0.316,0.3175,0.3335,0.319,0.329,0.3465,0.344,0.339,0.3365,0.3335,0.3365,0.341,0.336,0.3365,0.3375,0.3475,0.3405,0.3305,0.329,0.323,0.3245,0.33,0.336,0.324,0.321,0.34,0.3465,0.332,0.3205,0.326,0.3365,0.3615,0.3675,0.363,0.3575,0.3435,0.333,0.33,0.3385,0.3345,0.3325,0.338,0.349,0.3475,0.34,0.346,0.3465,0.3495,0.3535,0.3585,0.362,0.3625,0.3595,0.352,0.361,0.3605,0.346,0.349,0.3445,0.3445,0.346,0.341,0.3465,0.347,0.351,0.343,0.341,0.3585,0.3555,0.352,0.355,0.3505,0.3545,0.3465,0.3575,0.371,0.364,0.3815,0.376,0.364,0.3645,0.3655,0.361,0.358,0.3515,0.332,0.354,0.381,0.397,0.4015,0.3945,0.386,0.3785,0.379,0.3835,0.381,0.368,0.3735,0.3725,0.3695,0.371,0.3775,0.3925,0.3895,0.4,0.4,0.3805,0.389,0.416,0.4125,0.4025,0.4095,0.4075,0.4125,0.4175,0.4175,0.4085,0.41,0.4235,0.4305,0.4295,0.4255,0.426,0.4195,0.415,0.411,0.4205,0.431,0.429,0.4415,0.4485,0.44,0.4415,0.448,0.4465,0.447,0.4485,0.458,0.4615,0.4645,0.4595,0.451,0.459,0.4515,0.451,0.4665,0.47,0.463,0.466,0.4605,0.4605,0.4775,0.4875,0.499,0.495,0.4815,0.4755,0.467,0.4685,0.473,0.465,0.4685,0.473,0.475,0.476,0.471,0.4735,0.4705,0.479,0.4775,0.4915,0.499,0.4775,0.488,0.492,0.4775,0.468,0.4865,0.485,0.469,0.472,0.4615,0.4585,0.459,0.461,0.454,0.44,0.4345,0.4295,0.441,0.446,0.434,0.4255,0.426,0.424,0.418,0.424,0.424,0.41,0.399,0.398,0.406,0.41,0.409,0.41,0.4005,0.3925,0.3865,0.3825,0.3805,0.3775,0.3825,0.3805,0.3835,0.3955,0.388,0.386,0.387,0.3665,0.3595,0.36,0.357,0.3555,0.346,0.3455,0.3465,0.3455,0.3465,0.3455,0.351,0.355,0.358,0.359,0.3445,0.341,0.341,0.3345,0.3305,0.313,0.3065,0.3055,0.3115,0.321,0.32,0.3385,0.343,0.3365,0.3365,0.338,0.3385,0.337,0.344,0.343,0.3345,0.3235,0.325,0.328,0.3335,0.3295,0.307,0.304,0.316,0.3225,0.328,0.3205,0.3085,0.308,0.311,0.319,0.3195,0.3255,0.3415,0.3365,0.326,0.333,0.327,0.3055,0.3075,0.311,0.3095,0.3135,0.313,0.3195,0.321,0.32,0.32,0.3255,0.3335,0.3385,0.3415,0.322,0.315,0.316,0.318,0.3315,0.328,0.314,0.313,0.3115,0.303,0.3,0.307,0.3125,0.3115,0.3095,0.297,0.292,0.2945,0.307,0.329,0.3275,0.3235,0.327,0.324,0.3185,0.309,0.3125,0.3135,0.3115,0.317,0.3065,0.303,0.314,0.309,0.3025,0.298,0.3045,0.3145,0.3185,0.3145,0.307,0.316,0.3135,0.3115,0.3085,0.299,0.3025,0.321,0.325,0.302,0.288,0.297,0.307,0.2855,0.295,0.2935,0.2935,0.321,0.313,0.311,0.3125,0.318,0.319,0.3195,0.316,0.308,0.3055,1.0
0.309,0.314,0.307,0.3145,0.314,0.3105,0.307,0.283,0.2865,0.307,0.2995,0.296,0.2925,0.289,0.289,0.303,0.312,0.303,0.3055,0.2965,0.285,0.295,0.308,0.305,0.308,0.321,0.315,0.309,0.307,0.3,0.294,0.2985,0.3095,0.309,0.303,0.2975,0.3065,0.3175,0.308,0.3,0.3075,0.3105,0.307,0.3055,0.3055,0.309,0.3105,0.325,0.3335,0.322,0.319,0.3225,0.3195,0.3265,0.334,0.313,0.311,0.329,0.3295,0.323,0.317,0.327,0.3355,0.341,0.3465,0.3555,0.3565,0.346,0.343,0.344,0.3415,0.337,0.349,0.368,0.373,0.375,0.3815,0.376,0.3755,0.3765,0.3775,0.3705,0.371,0.365,0.3535,0.368,0.376,0.382,0.3925,0.401,0.3945,0.3795,0.365,0.3605,0.369,0.3735,0.365,0.36,0.365,0.382,0.381,0.3645,0.363,0.3815,0.389,0.369,0.3555,0.346,0.3505,0.3485,0.3495,0.343,0.3195,0.3195,0.312,0.308,0.3115,0.304,0.299,0.2965,0.3005,0.306,0.309,0.3085,0.2995,0.2965,0.299,0.3035,0.31,0.3085,0.295,0.299,0.3045,0.2925,0.2925,0.2955,0.2975,0.2965,0.3055,0.317,0.3005,0.296,0.301,0.3045,0.312,0.304,0.298,0.2945,0.284,0.276,0.2815,0.2935,0.2955,0.286,0.2805,0.279,0.2775,0.28,0.2835,0.294,0.2975,0.2945,0.3025,0.312,0.3195,0.31,0.286,0.2945,0.287,0.258,0.2575,0.2515,0.24,0.225,0.2205,0.2255,0.2255,0.225,0.218,0.2175,0.214,0.2115,0.232,0.2635,0.274,0.2645,0.269,0.2815,0.289,0.311,0.3425,0.364,0.368,0.368,0.3855,0.4135,0.459,0.5125,0.556,0.5995,0.6415,0.6925,0.7375,0.7705,0.8015,0.8085,0.815,0.8105,0.7915,0.756,0.7,0.6445,0.583,0.5175,0.459,0.4025,0.3595,0.337,0.299,0.274,0.273,0.2485,0.2325,0.216,0.192,0.183,0.1605,0.1405,0.143,0.16,0.164,0.16,0.158,0.17,0.1835,0.1885,0.2085,0.2135,0.2095,0.207,0.2165,0.239,0.2595,0.2645,0.271,0.2845,0.2795,0.28,0.284,0.2815,0.2795,0.2785,0.262,0.259,0.272,0.278,0.281,0.2825,0.2975,0.3055,0.304,0.3005,0.3135,0.3205,0.32,0.3225,0.311,0.302,0.2985,0.3085,0.309,0.314,0.314,0.3025,0.3005,0.297,0.3105,0.317,0.306,0.2885,0.287,0.315,0.3185,0.305,0.3165,0.3275,0.322,0.3205,0.3265,0.3215,0.3135,0.3115,0.311,0.3105,0.3025,0.2995,0.3,0.3,0.303,0.305,0.304,0.3105,0.3205,0.3165,0.3155,0.328,0.332,0.3245,0.319,0.3185,0.321,0.309,0.302,0.305,0.3015,0.3065,0.302,0.2995,0.323,0.3385,0.343,0.3445,0.334,0.3345,0.332,0.331,0.3135,0.294,0.307,0.3095,0.3125,0.3175,0.314,0.309,0.307,0.3105,0.3225,0.3325,0.3325,0.3365,0.3315,0.324,0.3315,0.338,0.339,0.341,0.3365,0.3335,0.336,0.3325,0.324,0.323,0.3245,0.3225,0.326,0.322,0.3165,0.3325,0.339,0.3325,0.3345,0.328,0.3395,0.361,0.36,0.354,0.344,0.3515,0.3545,0.344,0.342,0.3375,0.3385,0.336,0.331,0.3375,0.3415,0.3415,0.34,0.349,0.3475,0.341,0.3485,0.3445,0.352,0.362,0.356,0.3545,0.3605,0.361,0.3525,0.357,0.369,0.37,0.361,0.355,0.359,0.364,0.3775,0.3795,0.384,0.398,0.3995,0.41,0.4125,0.4005,0.391,0.392,0.404,0.3985,0.3755,0.3785,0.3905,0.384,0.3845,0.38,0.379,0.383,0.384,0.3985,0.4035,0.403,0.422,0.434,0.421,0.4375,0.462,0.453,0.4535,0.455,0.4475,0.44,0.4395,0.437,0.4325,0.4315,0.4335,0.44,0.434,0.434,0.435,0.4405,0.448,0.453,0.4615,0.459,0.458,0.4515,0.444,0.4535,0.453,0.453,0.4525,0.439,0.4485,0.448,0.4525,0.4665,0.4605,0.4615,0.456,0.4545,0.461,0.463,0.465,0.4565,0.46,0.4805,0.477,0.466,0.4605,0.4595,0.457,0.446,0.4445,0.4385,0.4305,0.4155,0.4055,0.4085,0.4185,0.4285,0.4315,0.4365,0.4275,0.4345,0.4395,0.439,0.4385,0.4165,0.4045,0.3975,0.406,0.407,0.389,0.3855,0.391,0.387,0.3785,0.3745,0.3705,0.372,0.383,0.3885,0.378,0.3785,0.378,0.367,0.363,0.36,0.356,0.3485,0.341,0.338,0.3345,0.3315,0.334,0.337,0.334,0.3355,0.324,0.32,0.3285,0.329,0.343,0.343,0.3395,0.3295,0.323,0.324,0.3155,0.3175,0.317,0.32,0.3145,0.2985,0.302,0.3175,0.319,0.313,0.3125,0.3205,0.329,0.3255,0.3245,0.326,0.3155,0.3135,0.317,0.3145,0.326,0.322,0.3075,0.2995,0.2945,0.3045,0.312,0.3125,0.3265,0.327,0.315,0.301,0.2855,0.3035,0.312,0.3105,0.317,0.3065,0.3075,0.308,0.307,0.32,0.3155,0.3095,0.316,0.32,0.314,0.2955,0.2955,0.304,0.313,0.3105,0.304,0.313,0.311,0.316,0.32,0.322,0.322,0.319,0.311,0.3015,0.3045,0.301,0.297,0.292,0.3035,0.301,0.2865,0.294,0.3085,0.3095,0.3,0.2975,0.289,0.291,0.295,0.293,0.288,0.2855,0.2895,0.2925,0.303,0.3015,0.3065,0.3105,0.3065,0.309,0.2915,0.291,0.2975,0.295,0.3115,0.3165,0.308,0.293,0.294,0.312,0.308,0.309,0.306,0.2955,0.3005,0.296,0.289,0.288,0.2935,0.2985,0.2985,0.298,0.302,0.308,0.303,0.301,0.3015,0.303,0.293,0.28,0.2875,0.298,0.2975,1.0
0.2965,0.2825,0.268,0.288,0.2965,0.2825,0.295,0.295,0.2715,0.286,0.316,0.307,0.284,0.285,0.294,0.301,0.3055,0.3045,0.301,0.299,0.302,0.302,0.3005,0.2955,0.2865,0.2865,0.291,0.291,0.3005,0.311,0.3035,0.3005,0.3045,0.3,0.293,0.2975,0.3085,0.313,0.316,0.3185,0.318,0.3185,0.331,0.326,0.311,0.317,0.3135,0.31,0.318,0.313,0.315,0.3185,0.3175,0.3275,0.3305,0.326,0.3255,0.3305,0.333,0.336,0.3385,0.327,0.3255,0.3365,0.3355,0.3435,0.3595,0.365,0.374,0.363,0.341,0.339,0.338,0.346,0.3425,0.3345,0.346,0.358,0.373,0.374,0.3695,0.3775,0.3795,0.3755,0.3795,0.3835,0.3745,0.375,0.372,0.3665,0.3735,0.3685,0.365,0.3625,0.3835,0.3885,0.365,0.372,0.38,0.386,0.394,0.4095,0.4135,0.39,0.3755,0.375,0.3735,0.3655,0.3505,0.34,0.3335,0.3185,0.3115,0.316,0.3195,0.3115,0.301,0.297,0.2905,0.291,0.2985,0.3065,0.306,0.303,0.297,0.305,0.3125,0.3035,0.3005,0.288,0.284,0.297,0.3015,0.294,0.284,0.28,0.2905,0.3075,0.3145,0.3155,0.3225,0.319,0.306,0.296,0.2965,0.2875,0.271,0.29,0.298,0.286,0.279,0.28,0.2755,0.2625,0.261,0.2705,0.277,0.271,0.274,0.2775,0.282,0.268,0.264,0.2755,0.279,0.2845,0.291,0.2915,0.2765,0.2725,0.2745,0.2615,0.242,0.2435,0.2375,0.23,0.2245,0.219,0.222,0.2105,0.2175,0.229,0.2305,0.2425,0.259,0.2745,0.2875,0.283,0.273,0.2765,0.3005,0.3325,0.3595,0.393,0.4055,0.4175,0.452,0.5015,0.553,0.585,0.621,0.675,0.729,0.7545,0.7765,0.8045,0.8245,0.83,0.824,0.805,0.763,0.6995,0.628,0.5595,0.5005,0.469,0.411,0.354,0.3475,0.3365,0.3235,0.301,0.277,0.2545,0.221,0.199,0.1895,0.184,0.1835,0.1795,0.169,0.166,0.169,0.1875,0.2175,0.215,0.213,0.214,0.2145,0.24,0.262,0.267,0.25,0.251,0.259,0.2655,0.274,0.2675,0.2675,0.265,0.268,0.28,0.281,0.2845,0.278,0.2815,0.2975,0.299,0.3095,0.3095,0.3135,0.323,0.3135,0.295,0.288,0.298,0.3095,0.312,0.313,0.309,0.304,0.301,0.2905,0.296,0.301,0.299,0.2985,0.2985,0.31,0.3135,0.305,0.3035,0.296,0.294,0.3085,0.3125,0.312,0.311,0.3155,0.316,0.3105,0.3175,0.3275,0.3085,0.287,0.295,0.3035,0.3025,0.2965,0.3025,0.312,0.3165,0.319,0.3195,0.317,0.312,0.313,0.308,0.306,0.3055,0.2955,0.298,0.3065,0.3,0.302,0.3095,0.306,0.309,0.314,0.319,0.334,0.3325,0.3245,0.324,0.3065,0.3085,0.3235,0.3275,0.322,0.3155,0.3125,0.3115,0.3075,0.3,0.3075,0.306,0.304,0.3185,0.3265,0.328,0.3285,0.3385,0.3375,0.332,0.341,0.3405,0.3295,0.3295,0.3355,0.334,0.3285,0.323,0.318,0.3105,0.3115,0.312,0.3135,0.3165,0.32,0.3205,0.3225,0.339,0.3365,0.335,0.3445,0.351,0.356,0.3565,0.3445,0.3415,0.343,0.336,0.3405,0.3285,0.3215,0.3215,0.328,0.3475,0.3575,0.356,0.3605,0.3725,0.362,0.3625,0.361,0.3555,0.3515,0.35,0.3585,0.353,0.3455,0.3435,0.3365,0.3295,0.3515,0.364,0.3565,0.3575,0.364,0.3675,0.3685,0.366,0.3645,0.3795,0.3855,0.3925,0.4055,0.4145,0.4185,0.4155,0.4035,0.391,0.395,0.3975,0.3925,0.3885,0.383,0.389,0.3965,0.4035,0.4155,0.4185,0.4255,0.4295,0.431,0.43,0.4225,0.423,0.422,0.4165,0.41,0.4205,0.4395,0.441,0.451,0.4565,0.4525,0.4535,0.445,0.4425,0.451,0.446,0.427,0.413,0.429,0.442,0.4425,0.4585,0.462,0.4565,0.452,0.458,0.464,0.4575,0.456,0.4545,0.457,0.455,0.4525,0.454,0.456,0.459,0.4625,0.4635,0.469,0.464,0.459,0.4515,0.433,0.432,0.439,0.448,0.448,0.449,0.434,0.417,0.419,0.4335,0.4605,0.457,0.4445,0.4385,0.448,0.4525,0.435,0.434,0.4305,0.4225,0.4275,0.4285,0.413,0.391,0.3885,0.398,0.3965,0.393,0.4025,0.407,0.405,0.4035,0.398,0.386,0.3745,0.376,0.382,0.379,0.359,0.353,0.3665,0.3675,0.3595,0.347,0.3375,0.338,0.3375,0.337,0.3405,0.3405,0.343,0.3355,0.34,0.348,0.339,0.3415,0.334,0.328,0.3255,0.3145,0.3185,0.3225,0.3215,0.322,0.3235,0.321,0.3305,0.339,0.33,0.338,0.351,0.345,0.3365,0.327,0.3165,0.3135,0.314,0.3115,0.306,0.3055,0.307,0.313,0.3195,0.32,0.3165,0.3075,0.3035,0.311,0.3125,0.3115,0.319,0.3205,0.3245,0.329,0.32,0.322,0.324,0.3185,0.3185,0.316,0.317,0.314,0.314,0.3095,0.301,0.297,0.2935,0.287,0.2935,0.306,0.3055,0.3135,0.316,0.326,0.321,0.312,0.3225,0.3285,0.34,0.333,0.301,0.3005,0.3095,0.3005,0.3065,0.292,0.2815,0.2815,0.2845,0.298,0.2995,0.3035,0.308,0.319,0.313,0.315,0.3395,0.3435,0.34,0.338,0.3295,0.3125,0.3105,0.323,0.3185,0.3195,0.319,0.3055,0.305,0.3,0.299,0.2935,0.2955,0.311,0.3075,0.3125,0.3125,0.3105,0.3145,0.309,0.303,0.29,0.2965,0.3015,0.294,0.2935,0.2935,0.2935,0.2915,0.2995,0.3015,0.2935,0.301,0.308,0.3085,0.309,0.305,0.3005,0.3015,0.301,0.304,0.3145,0.308,1.0
0.306,0.2885,0.2875,0.291,0.2845,0.2795,0.2815,0.288,0.2935,0.289,0.284,0.3,0.3105,0.3125,0.3165,0.3135,0.305,0.301,0.3005,0.294,0.292,0.292,0.287,0.298,0.292,0.283,0.2955,0.2895,0.275,0.2815,0.283,0.282,0.281,0.2725,0.3,0.3345,0.3345,0.3275,0.333,0.3325,0.329,0.327,0.324,0.322,0.3155,0.319,0.318,0.3055,0.299,0.311,0.3265,0.3345,0.343,0.34,0.3315,0.3295,0.3305,0.3345,0.334,0.327,0.316,0.3195,0.325,0.319,0.332,0.342,0.3375,0.3455,0.3525,0.3525,0.3535,0.3565,0.37,0.3825,0.379,0.376,0.371,0.3715,0.381,0.377,0.3745,0.371,0.3745,0.372,0.353,0.361,0.38,0.3825,0.376,0.372,0.376,0.383,0.3835,0.3885,0.3935,0.383,0.372,0.3745,0.3745,0.368,0.364,0.3605,0.361,0.365,0.3705,0.3675,0.362,0.3685,0.378,0.384,0.3775,0.363,0.3535,0.34,0.334,0.3325,0.3265,0.3305,0.327,0.3195,0.3195,0.3145,0.3125,0.3055,0.3025,0.3085,0.306,0.3,0.2945,0.288,0.2875,0.295,0.2975,0.302,0.312,0.309,0.302,0.307,0.311,0.3025,0.295,0.2965,0.295,0.286,0.2865,0.286,0.284,0.292,0.2935,0.297,0.307,0.3135,0.2935,0.2815,0.3015,0.3065,0.304,0.2805,0.2605,0.272,0.272,0.268,0.2745,0.2765,0.2855,0.291,0.2835,0.287,0.2855,0.2795,0.274,0.266,0.254,0.246,0.2465,0.2505,0.251,0.237,0.2265,0.224,0.222,0.222,0.2385,0.264,0.272,0.2595,0.2615,0.278,0.2825,0.3065,0.3435,0.372,0.4005,0.4155,0.429,0.451,0.4835,0.5295,0.581,0.625,0.659,0.699,0.736,0.7715,0.796,0.815,0.8255,0.823,0.8195,0.8015,0.77,0.719,0.6485,0.569,0.5,0.445,0.397,0.366,0.3455,0.3415,0.329,0.3095,0.2875,0.252,0.236,0.2195,0.2025,0.1965,0.1955,0.1905,0.192,0.1985,0.198,0.2085,0.2255,0.246,0.2515,0.2435,0.2415,0.263,0.2765,0.2635,0.2535,0.257,0.271,0.2735,0.272,0.2755,0.2795,0.2845,0.2825,0.291,0.299,0.305,0.3125,0.3135,0.327,0.337,0.333,0.3225,0.321,0.316,0.307,0.3055,0.3065,0.319,0.328,0.326,0.3195,0.309,0.308,0.3135,0.3165,0.31,0.306,0.3105,0.319,0.3305,0.3345,0.3375,0.3225,0.308,0.3105,0.3085,0.3075,0.306,0.3075,0.314,0.315,0.3175,0.329,0.336,0.3365,0.326,0.3195,0.325,0.3255,0.327,0.3195,0.315,0.3175,0.3145,0.3205,0.333,0.328,0.3115,0.302,0.2905,0.2935,0.309,0.3135,0.3175,0.3165,0.3105,0.319,0.3255,0.3285,0.332,0.3135,0.3055,0.3155,0.3165,0.3115,0.318,0.3215,0.313,0.3325,0.338,0.3205,0.3165,0.3195,0.325,0.326,0.339,0.3435,0.3365,0.337,0.334,0.3305,0.3325,0.331,0.3255,0.3255,0.327,0.3255,0.3145,0.323,0.3345,0.33,0.3255,0.3265,0.339,0.3495,0.3495,0.338,0.3345,0.344,0.343,0.334,0.328,0.326,0.3205,0.3105,0.3145,0.325,0.3345,0.344,0.3435,0.3565,0.3555,0.342,0.356,0.362,0.3595,0.358,0.362,0.3625,0.356,0.3605,0.366,0.368,0.36,0.371,0.3705,0.353,0.361,0.3485,0.346,0.361,0.3615,0.362,0.3645,0.371,0.3765,0.3795,0.371,0.37,0.3765,0.38,0.384,0.3735,0.3695,0.3785,0.3795,0.376,0.38,0.379,0.382,0.3865,0.3985,0.413,0.4195,0.419,0.4045,0.428,0.4525,0.449,0.438,0.417,0.4075,0.409,0.408,0.401,0.4045,0.4065,0.407,0.426,0.4455,0.448,0.4495,0.457,0.4635,0.469,0.457,0.443,0.44,0.449,0.4645,0.459,0.454,0.4525,0.451,0.4555,0.45,0.4465,0.451,0.455,0.4555,0.459,0.4765,0.4865,0.4765,0.4705,0.4765,0.483,0.4815,0.484,0.4835,0.477,0.47,0.459,0.456,0.458,0.4585,0.4585,0.46,0.4625,0.4595,0.458,0.46,0.463,0.4595,0.4625,0.465,0.449,0.4495,0.458,0.4525,0.4435,0.4405,0.4315,0.422,0.4305,0.434,0.4235,0.4145,0.409,0.409,0.4205,0.433,0.4335,0.4285,0.442,0.4425,0.4215,0.413,0.401,0.397,0.397,0.3995,0.401,0.3945,0.3895,0.381,0.3765,0.3795,0.3825,0.375,0.367,0.363,0.362,0.36,0.3585,0.358,0.351,0.346,0.3415,0.346,0.356,0.3625,0.3685,0.357,0.3455,0.3545,0.3495,0.3345,0.321,0.3315,0.354,0.347,0.336,0.3345,0.344,0.3515,0.346,0.341,0.33,0.3205,0.3225,0.3235,0.3265,0.324,0.3335,0.337,0.3175,0.3125,0.324,0.3395,0.3265,0.3135,0.3175,0.3255,0.323,0.3215,0.331,0.322,0.323,0.32,0.3155,0.3185,0.32,0.315,0.305,0.312,0.32,0.333,0.3405,0.3335,0.329,0.3195,0.3115,0.312,0.3165,0.328,0.3395,0.3365,0.3475,0.357,0.3285,0.321,0.319,0.3135,0.321,0.3105,0.295,0.297,0.31,0.3145,0.32,0.3185,0.3215,0.328,0.3245,0.3185,0.3175,0.322,0.32,0.318,0.3125,0.313,0.317,0.3105,0.305,0.2945,0.3015,0.314,0.308,0.3,0.311,0.3275,0.326,0.318,0.3015,0.292,0.299,0.3015,0.316,0.319,0.311,0.325,0.3315,0.3475,0.35,0.3335,0.3205,0.31,0.3055,0.2895,0.2865,0.3125,0.324,0.3115,0.31,0.308,0.3045,0.302,0.3005,0.297,0.3,0.306,0.2985,0.306,0.313,0.305,0.301,0.3085,0.317,0.314,0.3095,0.3105,0.307,1.0
0.3135,0.298,0.303,0.313,0.3125,0.284,0.273,0.293,0.3015,0.2965,0.2865,0.2925,0.291,0.2755,0.2865,0.298,0.2865,0.289,0.3085,0.3095,0.3015,0.309,0.307,0.2995,0.294,0.2925,0.3005,0.2995,0.301,0.299,0.304,0.305,0.2805,0.273,0.274,0.285,0.301,0.304,0.3145,0.325,0.3315,0.3175,0.305,0.3195,0.323,0.3265,0.329,0.3155,0.3075,0.3055,0.3055,0.2995,0.295,0.2965,0.3065,0.326,0.3305,0.324,0.326,0.3315,0.336,0.336,0.3265,0.336,0.348,0.343,0.3385,0.333,0.3415,0.353,0.347,0.3375,0.338,0.348,0.3465,0.3415,0.35,0.367,0.389,0.395,0.391,0.386,0.3885,0.3875,0.382,0.385,0.374,0.37,0.36,0.357,0.3465,0.344,0.3685,0.3645,0.3575,0.3565,0.357,0.3665,0.3825,0.386,0.389,0.3955,0.3835,0.3775,0.3675,0.363,0.3605,0.347,0.3535,0.349,0.332,0.324,0.3055,0.2895,0.289,0.291,0.292,0.292,0.2895,0.2905,0.2945,0.3055,0.321,0.335,0.3185,0.299,0.3115,0.3135,0.296,0.2935,0.297,0.292,0.286,0.287,0.3055,0.311,0.303,0.294,0.2775,0.2785,0.287,0.279,0.2765,0.2845,0.298,0.3105,0.307,0.288,0.276,0.282,0.2855,0.2825,0.2765,0.279,0.278,0.2705,0.281,0.2885,0.283,0.278,0.2895,0.306,0.2985,0.2775,0.2575,0.2735,0.287,0.2715,0.267,0.2545,0.2495,0.247,0.2255,0.2125,0.212,0.2115,0.2045,0.204,0.206,0.2185,0.221,0.217,0.2295,0.2415,0.2665,0.272,0.259,0.262,0.275,0.2815,0.305,0.3405,0.365,0.3785,0.382,0.4135,0.4495,0.498,0.5615,0.6095,0.651,0.689,0.726,0.764,0.7925,0.805,0.821,0.822,0.7985,0.7705,0.734,0.67,0.598,0.541,0.476,0.42,0.374,0.3325,0.2965,0.273,0.269,0.2425,0.2215,0.208,0.183,0.158,0.1525,0.161,0.1555,0.153,0.1525,0.1515,0.15,0.156,0.168,0.183,0.186,0.183,0.1915,0.1965,0.2105,0.212,0.218,0.2365,0.244,0.257,0.258,0.263,0.2505,0.239,0.2605,0.269,0.278,0.2805,0.279,0.2795,0.2785,0.282,0.288,0.2875,0.288,0.2995,0.304,0.3005,0.294,0.2955,0.305,0.3,0.299,0.302,0.2935,0.292,0.279,0.2735,0.2855,0.299,0.3065,0.3075,0.3105,0.3145,0.3175,0.3125,0.3135,0.3075,0.301,0.295,0.2875,0.294,0.302,0.312,0.3085,0.284,0.2835,0.2935,0.289,0.2885,0.2885,0.2885,0.305,0.316,0.3125,0.331,0.342,0.338,0.329,0.3215,0.3265,0.326,0.319,0.309,0.305,0.306,0.3075,0.305,0.3085,0.306,0.2995,0.3,0.3005,0.3085,0.3115,0.3115,0.319,0.326,0.3225,0.301,0.2965,0.3115,0.3175,0.3125,0.305,0.31,0.307,0.3045,0.3155,0.3335,0.339,0.331,0.3365,0.332,0.3275,0.3365,0.3305,0.3355,0.339,0.3365,0.3285,0.2975,0.2905,0.2955,0.307,0.3205,0.3255,0.322,0.313,0.3,0.303,0.3325,0.346,0.345,0.3505,0.3615,0.352,0.345,0.347,0.341,0.343,0.341,0.3395,0.346,0.3495,0.339,0.339,0.3465,0.339,0.3295,0.32,0.3185,0.322,0.323,0.328,0.328,0.338,0.3555,0.3635,0.364,0.36,0.365,0.371,0.376,0.3765,0.369,0.3655,0.3575,0.365,0.3775,0.3685,0.373,0.3785,0.3815,0.381,0.3825,0.386,0.3845,0.3885,0.38,0.382,0.3695,0.376,0.388,0.3805,0.3845,0.38,0.387,0.3905,0.4075,0.421,0.408,0.409,0.395,0.396,0.421,0.424,0.4345,0.4355,0.42,0.4195,0.427,0.4245,0.437,0.4445,0.427,0.4255,0.428,0.425,0.4225,0.4295,0.4445,0.446,0.446,0.444,0.4405,0.4505,0.4515,0.448,0.45,0.4475,0.4405,0.4365,0.442,0.445,0.445,0.447,0.466,0.469,0.457,0.468,0.4695,0.4585,0.4585,0.4755,0.472,0.4645,0.4675,0.4645,0.4645,0.4515,0.4495,0.4605,0.467,0.4555,0.4475,0.451,0.438,0.43,0.433,0.4375,0.434,0.433,0.4385,0.441,0.438,0.4325,0.429,0.422,0.4245,0.425,0.4195,0.4095,0.401,0.3965,0.3955,0.3945,0.389,0.3795,0.3705,0.364,0.359,0.382,0.393,0.383,0.3875,0.393,0.3905,0.3775,0.3595,0.3475,0.35,0.346,0.3425,0.355,0.3555,0.354,0.3545,0.3535,0.353,0.3475,0.3525,0.3455,0.324,0.3375,0.3375,0.315,0.3085,0.308,0.313,0.3315,0.357,0.3545,0.3345,0.312,0.316,0.3235,0.317,0.3185,0.315,0.316,0.3175,0.333,0.341,0.3245,0.3185,0.318,0.33,0.3275,0.3135,0.3105,0.3095,0.308,0.2985,0.302,0.3095,0.297,0.292,0.306,0.3145,0.304,0.295,0.3085,0.3045,0.29,0.298,0.3045,0.2975,0.2995,0.3255,0.3275,0.325,0.3285,0.318,0.315,0.305,0.3015,0.312,0.3155,0.3075,0.302,0.304,0.2965,0.3015,0.308,0.308,0.323,0.315,0.31,0.311,0.2995,0.3025,0.3015,0.2995,0.3035,0.2905,0.2815,0.2865,0.2955,0.299,0.299,0.3065,0.3045,0.304,0.29,0.276,0.301,0.307,0.2975,0.3015,0.311,0.318,0.3175,0.3145,0.3055,0.296,0.302,0.3035,0.2985,0.309,0.302,0.295,0.3005,0.2985,0.2985,0.3015,0.307,0.31,0.3105,0.3075,0.3065,0.302,0.2945,0.2875,0.2905,0.2865,0.2735,0.2785,0.276,0.271,0.2665,0.2655,0.2645,0.2655,0.28,0.299,0.314,0.3,0.294,0.301,0.3065,0.313,0.301,0.3025,0.311,1.0
0.295,0.278,0.277,0.2935,0.295,0.2935,0.293,0.2885,0.2815,0.2715,0.263,0.264,0.262,0.262,0.2675,0.2685,0.2725,0.2705,0.2785,0.3,0.2965,0.2835,0.2835,0.2935,0.2985,0.2895,0.288,0.2915,0.2915,0.2895,0.284,0.281,0.281,0.2765,0.2695,0.2655,0.2755,0.2975,0.297,0.3025,0.307,0.293,0.2885,0.284,0.283,0.2905,0.302,0.3,0.299,0.304,0.3035,0.2995,0.2975,0.3075,0.309,0.303,0.304,0.314,0.319,0.302,0.29,0.303,0.312,0.2995,0.3015,0.3175,0.323,0.3225,0.324,0.3315,0.3465,0.3575,0.3405,0.3295,0.3285,0.3125,0.3165,0.335,0.336,0.3185,0.328,0.3425,0.3455,0.3555,0.3525,0.36,0.3715,0.3775,0.38,0.369,0.3575,0.3515,0.3465,0.348,0.3475,0.3455,0.3495,0.3565,0.3565,0.3665,0.3905,0.3845,0.376,0.37,0.36,0.3625,0.358,0.3475,0.332,0.317,0.302,0.301,0.3105,0.303,0.2865,0.272,0.2775,0.2755,0.2785,0.2985,0.2995,0.3015,0.288,0.274,0.279,0.283,0.2845,0.281,0.2815,0.2785,0.2705,0.273,0.2795,0.275,0.277,0.2835,0.27,0.259,0.2735,0.2905,0.28,0.2755,0.267,0.266,0.2845,0.2835,0.285,0.278,0.275,0.2705,0.2545,0.257,0.2645,0.268,0.2665,0.259,0.256,0.2625,0.256,0.2545,0.256,0.256,0.2595,0.253,0.2555,0.26,0.2535,0.2535,0.256,0.2595,0.254,0.233,0.228,0.2165,0.205,0.2085,0.2065,0.2125,0.214,0.207,0.205,0.2045,0.219,0.2195,0.221,0.2485,0.2525,0.248,0.2575,0.2585,0.2635,0.296,0.312,0.3225,0.3355,0.347,0.3795,0.4245,0.4905,0.5635,0.616,0.646,0.692,0.734,0.7545,0.7685,0.7755,0.7935,0.791,0.7775,0.748,0.694,0.6335,0.5675,0.5045,0.4465,0.405,0.3655,0.331,0.304,0.29,0.286,0.2635,0.245,0.231,0.2045,0.1725,0.144,0.138,0.1335,0.124,0.127,0.119,0.1055,0.124,0.15,0.1715,0.189,0.183,0.198,0.2265,0.245,0.256,0.2555,0.2605,0.256,0.259,0.27,0.2605,0.2565,0.264,0.258,0.263,0.2665,0.259,0.2695,0.274,0.279,0.2825,0.282,0.2795,0.2775,0.2755,0.277,0.2785,0.2765,0.2775,0.2795,0.2845,0.2795,0.273,0.273,0.2945,0.304,0.2835,0.274,0.285,0.291,0.2925,0.3005,0.2995,0.288,0.289,0.3025,0.301,0.3005,0.298,0.2895,0.2945,0.2985,0.29,0.2795,0.28,0.284,0.289,0.296,0.298,0.2935,0.2795,0.2795,0.2905,0.2985,0.3085,0.3095,0.306,0.3085,0.317,0.3115,0.3095,0.2985,0.2855,0.276,0.256,0.26,0.262,0.266,0.269,0.266,0.2725,0.283,0.3025,0.304,0.3115,0.3335,0.334,0.334,0.3185,0.313,0.3195,0.321,0.3255,0.3105,0.3095,0.308,0.3095,0.3095,0.306,0.308,0.299,0.2965,0.3005,0.3035,0.306,0.3115,0.312,0.317,0.319,0.3115,0.313,0.3215,0.325,0.319,0.312,0.307,0.317,0.3245,0.328,0.335,0.3335,0.328,0.316,0.3115,0.3195,0.3215,0.3195,0.3175,0.3205,0.3335,0.341,0.331,0.318,0.3155,0.3175,0.317,0.312,0.312,0.316,0.32,0.331,0.3365,0.3335,0.3385,0.35,0.3545,0.3545,0.3585,0.3565,0.3575,0.361,0.3455,0.3435,0.3465,0.3445,0.334,0.313,0.3125,0.3275,0.336,0.331,0.342,0.336,0.3475,0.387,0.3875,0.3795,0.3875,0.3905,0.379,0.3725,0.3865,0.404,0.4015,0.3875,0.385,0.398,0.4075,0.403,0.3915,0.3805,0.3785,0.389,0.3955,0.404,0.412,0.4085,0.411,0.408,0.4095,0.418,0.4305,0.4465,0.437,0.4215,0.4175,0.42,0.417,0.4165,0.4255,0.421,0.4215,0.4265,0.4285,0.433,0.438,0.4395,0.437,0.4345,0.4355,0.436,0.431,0.427,0.4275,0.429,0.424,0.419,0.4165,0.4115,0.4225,0.439,0.444,0.44,0.4405,0.4525,0.4515,0.452,0.458,0.4585,0.463,0.455,0.4455,0.445,0.444,0.447,0.434,0.426,0.4345,0.411,0.4025,0.4065,0.411,0.4215,0.419,0.427,0.418,0.412,0.404,0.39,0.3925,0.4005,0.406,0.402,0.4055,0.384,0.3725,0.3745,0.3645,0.3805,0.387,0.3665,0.3645,0.377,0.3725,0.368,0.368,0.3635,0.362,0.357,0.3475,0.3515,0.3575,0.3475,0.3335,0.326,0.3285,0.3375,0.3365,0.32,0.3235,0.327,0.3205,0.3205,0.3145,0.314,0.3155,0.315,0.3095,0.307,0.308,0.3115,0.3095,0.311,0.3185,0.314,0.3065,0.2955,0.302,0.304,0.2975,0.284,0.2825,0.2965,0.3005,0.3175,0.324,0.318,0.3145,0.3115,0.3125,0.3105,0.286,0.287,0.3025,0.2985,0.2805,0.271,0.2815,0.2755,0.2785,0.2795,0.2775,0.2815,0.2825,0.3,0.3165,0.3315,0.3285,0.3185,0.329,0.329,0.316,0.304,0.2965,0.289,0.2845,0.291,0.2935,0.29,0.2915,0.2895,0.285,0.283,0.2825,0.29,0.2875,0.2915,0.3,0.289,0.2975,0.2995,0.282,0.2855,0.294,0.3,0.29,0.294,0.3075,0.2985,0.296,0.2945,0.292,0.296,0.297,0.3015,0.3005,0.304,0.3055,0.29,0.2895,0.291,0.278,0.28,0.2865,0.288,0.2885,0.2825,0.2765,0.28,0.2895,0.303,0.301,0.274,0.2645,0.2735,0.2875,0.2915,0.2885,0.291,0.279,0.2865,0.2935,0.291,0.303,0.297,0.304,0.2785,0.248,0.2695,0.282,0.2835,0.2735,0.2815,0.2775,0.271,0.276,0.27,0.272,0.2615,0.2585,0.2665,0.2775,0.275,1.0
0.2875,0.2805,0.2775,0.2885,0.289,0.286,0.2875,0.279,0.28,0.282,0.2775,0.2755,0.2775,0.27,0.266,0.282,0.2795,0.267,0.263,0.266,0.2695,0.272,0.28,0.2915,0.298,0.297,0.29,0.2815,0.2775,0.272,0.277,0.2725,0.266,0.274,0.2765,0.2795,0.2835,0.288,0.285,0.278,0.277,0.2805,0.289,0.296,0.2995,0.2975,0.2965,0.294,0.284,0.2935,0.301,0.288,0.2855,0.2835,0.2915,0.302,0.2935,0.297,0.307,0.3035,0.2985,0.311,0.313,0.322,0.3235,0.3015,0.32,0.3245,0.3255,0.338,0.343,0.354,0.349,0.3395,0.333,0.337,0.334,0.3375,0.346,0.347,0.359,0.363,0.361,0.37,0.364,0.3605,0.366,0.36,0.3505,0.344,0.3375,0.333,0.334,0.3385,0.3525,0.3445,0.346,0.3665,0.3795,0.39,0.382,0.3805,0.3915,0.3805,0.36,0.362,0.3545,0.341,0.3195,0.2945,0.3,0.304,0.2885,0.277,0.2755,0.283,0.288,0.2755,0.2745,0.2875,0.289,0.292,0.305,0.299,0.284,0.281,0.2865,0.298,0.2945,0.281,0.2765,0.2625,0.2585,0.257,0.244,0.2415,0.237,0.254,0.266,0.2675,0.28,0.284,0.295,0.3,0.282,0.2735,0.273,0.264,0.262,0.2525,0.2515,0.261,0.254,0.2645,0.282,0.2815,0.2705,0.2735,0.2885,0.2915,0.288,0.277,0.2635,0.265,0.265,0.271,0.2805,0.264,0.2515,0.256,0.245,0.2335,0.2355,0.226,0.2125,0.2035,0.1965,0.197,0.198,0.1915,0.1895,0.1965,0.202,0.217,0.2425,0.2495,0.2415,0.25,0.2635,0.281,0.3125,0.342,0.359,0.3615,0.363,0.3705,0.42,0.487,0.5345,0.6,0.6355,0.6575,0.7115,0.7435,0.7655,0.7835,0.7895,0.7925,0.7915,0.767,0.7225,0.681,0.632,0.5585,0.477,0.4225,0.38,0.34,0.319,0.3025,0.2935,0.2835,0.255,0.248,0.247,0.2195,0.1845,0.1675,0.174,0.183,0.18,0.175,0.1735,0.171,0.1765,0.182,0.188,0.203,0.222,0.228,0.2155,0.2185,0.2535,0.259,0.2435,0.2525,0.2545,0.26,0.273,0.272,0.2795,0.2845,0.28,0.2805,0.2755,0.279,0.279,0.2725,0.2795,0.2775,0.2735,0.2825,0.288,0.293,0.2945,0.3045,0.317,0.3085,0.292,0.273,0.277,0.2895,0.274,0.274,0.285,0.2835,0.2835,0.2875,0.2955,0.2815,0.27,0.27,0.2645,0.282,0.287,0.2895,0.309,0.307,0.3065,0.295,0.278,0.2825,0.288,0.291,0.2845,0.2805,0.2865,0.2855,0.2845,0.2805,0.28,0.292,0.3045,0.296,0.2845,0.298,0.306,0.3,0.2905,0.288,0.2855,0.283,0.283,0.29,0.288,0.279,0.29,0.2905,0.2955,0.2935,0.284,0.293,0.2945,0.3045,0.3045,0.293,0.2985,0.298,0.2965,0.294,0.29,0.2875,0.2895,0.2955,0.2965,0.2965,0.288,0.283,0.284,0.288,0.2955,0.3005,0.3055,0.317,0.3205,0.3165,0.315,0.31,0.3045,0.297,0.2895,0.284,0.2925,0.3075,0.2935,0.281,0.301,0.318,0.325,0.327,0.3315,0.345,0.348,0.338,0.3315,0.3315,0.3295,0.336,0.336,0.327,0.3165,0.3145,0.3135,0.304,0.3075,0.2995,0.3035,0.3105,0.3135,0.326,0.3305,0.337,0.337,0.334,0.3295,0.3305,0.3395,0.341,0.331,0.328,0.328,0.326,0.34,0.3525,0.347,0.3475,0.3495,0.35,0.3535,0.3525,0.357,0.3655,0.376,0.3765,0.376,0.3775,0.377,0.38,0.3725,0.366,0.372,0.3765,0.3665,0.3645,0.3685,0.366,0.375,0.3875,0.3915,0.407,0.409,0.4045,0.41,0.4055,0.409,0.411,0.412,0.4065,0.4045,0.418,0.416,0.412,0.4065,0.402,0.414,0.42,0.422,0.4285,0.4365,0.429,0.425,0.4355,0.435,0.4455,0.458,0.455,0.45,0.436,0.427,0.4305,0.4355,0.4345,0.426,0.4225,0.4325,0.4435,0.4365,0.437,0.444,0.4455,0.4515,0.4565,0.456,0.4475,0.4465,0.445,0.4555,0.44,0.4145,0.422,0.4265,0.428,0.4185,0.4155,0.414,0.4145,0.4245,0.419,0.4175,0.4215,0.417,0.421,0.4215,0.4115,0.412,0.4175,0.416,0.4185,0.4165,0.403,0.395,0.3895,0.394,0.3895,0.3865,0.39,0.386,0.374,0.353,0.354,0.358,0.3605,0.351,0.3405,0.3475,0.345,0.358,0.3525,0.334,0.3385,0.3315,0.3265,0.335,0.348,0.348,0.328,0.327,0.3375,0.338,0.3285,0.318,0.319,0.3155,0.3135,0.3215,0.3205,0.308,0.3025,0.2975,0.2935,0.298,0.301,0.299,0.2935,0.302,0.3055,0.3025,0.3085,0.3025,0.3,0.308,0.315,0.3065,0.3055,0.31,0.3045,0.2985,0.2895,0.2865,0.253,0.2405,0.277,0.288,0.29,0.3005,0.3065,0.303,0.2935,0.298,0.3085,0.3215,0.3265,0.3075,0.299,0.2995,0.2975,0.297,0.2915,0.301,0.2975,0.287,0.2975,0.2925,0.285,0.2845,0.286,0.2985,0.292,0.2835,0.288,0.2895,0.2865,0.28,0.2995,0.3035,0.294,0.3045,0.3025,0.3035,0.301,0.306,0.304,0.29,0.2915,0.2885,0.2885,0.2885,0.283,0.278,0.2825,0.284,0.2835,0.2925,0.298,0.3075,0.3075,0.3015,0.294,0.286,0.2905,0.289,0.293,0.2885,0.28,0.281,0.277,0.274,0.2635,0.262,0.269,0.274,0.2805,0.297,0.315,0.319,0.3365,0.3275,0.2895,0.2845,0.2985,0.286,0.276,0.2795,0.2725,0.2715,0.268,0.265,0.278,0.2805,0.28,0.2865,0.274,0.263,0.27,0.2785,0.285,0.294,0.2895,0.2785,0.272,0.266,1.0
0.2855,0.2705,0.2595,0.2565,0.2685,0.2795,0.2765,0.2775,0.273,0.2695,0.278,0.279,0.277,0.2755,0.262,0.2585,0.262,0.2625,0.2655,0.2685,0.268,0.2685,0.274,0.2675,0.277,0.2885,0.286,0.2885,0.287,0.298,0.2905,0.28,0.2745,0.259,0.2745,0.2865,0.2715,0.2645,0.2755,0.27,0.276,0.2985,0.2965,0.3005,0.3045,0.3065,0.3155,0.3125,0.311,0.304,0.294,0.2765,0.2685,0.299,0.3105,0.305,0.3025,0.296,0.2955,0.2965,0.2865,0.2765,0.2875,0.31,0.3205,0.3145,0.3225,0.3305,0.334,0.3445,0.343,0.338,0.336,0.3315,0.332,0.3365,0.3395,0.346,0.341,0.337,0.345,0.3355,0.3235,0.3335,0.349,0.3445,0.3505,0.3705,0.3625,0.367,0.3805,0.3525,0.344,0.355,0.3475,0.3415,0.3355,0.332,0.338,0.353,0.364,0.3525,0.3455,0.34,0.3415,0.351,0.3465,0.341,0.345,0.3545,0.333,0.319,0.315,0.299,0.2915,0.281,0.281,0.267,0.262,0.2695,0.277,0.281,0.2705,0.271,0.278,0.283,0.279,0.2845,0.2895,0.287,0.2905,0.289,0.2765,0.2725,0.274,0.2525,0.242,0.249,0.261,0.2755,0.27,0.251,0.2455,0.2535,0.2515,0.268,0.2765,0.2605,0.2535,0.246,0.254,0.259,0.2595,0.2645,0.258,0.2595,0.2525,0.2455,0.251,0.248,0.2465,0.248,0.248,0.2455,0.2485,0.243,0.2285,0.2265,0.2315,0.2365,0.2275,0.206,0.203,0.2055,0.181,0.1845,0.1995,0.197,0.209,0.2035,0.1905,0.1985,0.212,0.218,0.227,0.243,0.243,0.2455,0.2555,0.262,0.2765,0.3045,0.3225,0.3425,0.3645,0.3755,0.4065,0.4445,0.499,0.5615,0.597,0.641,0.688,0.7255,0.7615,0.787,0.798,0.7995,0.7975,0.78,0.7495,0.707,0.642,0.5725,0.5045,0.437,0.377,0.3365,0.319,0.298,0.2735,0.264,0.252,0.2245,0.2125,0.201,0.1795,0.141,0.115,0.124,0.137,0.1455,0.1325,0.133,0.1475,0.1625,0.1775,0.184,0.1875,0.1855,0.183,0.1825,0.185,0.1855,0.193,0.2065,0.22,0.233,0.2355,0.2245,0.242,0.25,0.234,0.2355,0.225,0.2175,0.2305,0.2505,0.284,0.3075,0.309,0.3025,0.2995,0.3035,0.2975,0.294,0.2915,0.2865,0.2845,0.28,0.279,0.2825,0.283,0.279,0.275,0.2765,0.2715,0.275,0.2795,0.271,0.2765,0.279,0.27,0.277,0.29,0.2805,0.267,0.2845,0.2925,0.278,0.275,0.2675,0.273,0.285,0.284,0.2835,0.288,0.284,0.275,0.2655,0.2585,0.2715,0.279,0.2635,0.27,0.29,0.2885,0.2865,0.284,0.288,0.2865,0.28,0.2835,0.278,0.281,0.289,0.291,0.288,0.272,0.265,0.265,0.274,0.2765,0.2705,0.2785,0.2905,0.2895,0.2965,0.3145,0.3135,0.311,0.307,0.298,0.294,0.298,0.2975,0.2915,0.2835,0.28,0.281,0.271,0.271,0.2765,0.281,0.288,0.303,0.312,0.311,0.3005,0.282,0.276,0.2735,0.288,0.2895,0.279,0.286,0.2975,0.2915,0.3105,0.327,0.3145,0.321,0.3135,0.3105,0.3165,0.3215,0.33,0.333,0.335,0.3315,0.328,0.3235,0.319,0.306,0.296,0.303,0.301,0.2945,0.303,0.329,0.3165,0.296,0.3155,0.3305,0.3445,0.345,0.33,0.327,0.334,0.3335,0.332,0.34,0.342,0.3345,0.3385,0.3485,0.344,0.3405,0.3375,0.341,0.3415,0.3385,0.35,0.346,0.34,0.344,0.347,0.3495,0.3595,0.3725,0.3645,0.3595,0.3705,0.379,0.385,0.39,0.378,0.375,0.376,0.366,0.3705,0.38,0.372,0.361,0.3575,0.3665,0.371,0.3725,0.4115,0.4315,0.4305,0.4265,0.4245,0.4415,0.4385,0.4385,0.43,0.4065,0.409,0.419,0.42,0.415,0.4185,0.427,0.431,0.433,0.4305,0.4285,0.43,0.429,0.43,0.4355,0.4425,0.438,0.431,0.4425,0.4405,0.427,0.422,0.4215,0.4205,0.4125,0.415,0.4305,0.4355,0.432,0.435,0.434,0.4365,0.44,0.4225,0.4155,0.4155,0.4165,0.417,0.406,0.406,0.411,0.433,0.446,0.4345,0.415,0.4075,0.408,0.4065,0.4045,0.396,0.3945,0.373,0.3615,0.3745,0.378,0.365,0.358,0.3505,0.335,0.3355,0.3365,0.3335,0.3375,0.34,0.3395,0.3745,0.391,0.376,0.3625,0.348,0.3455,0.335,0.3325,0.332,0.343,0.345,0.3205,0.32,0.3195,0.3115,0.3155,0.318,0.3175,0.306,0.294,0.2955,0.296,0.305,0.312,0.313,0.3185,0.3105,0.3045,0.301,0.279,0.274,0.2835,0.2725,0.2705,0.2645,0.2555,0.2595,0.264,0.2855,0.2955,0.288,0.302,0.3105,0.3015,0.298,0.29,0.277,0.2775,0.2805,0.283,0.2835,0.272,0.2655,0.2595,0.255,0.252,0.2615,0.2695,0.2775,0.29,0.278,0.281,0.2845,0.285,0.2905,0.283,0.285,0.2935,0.301,0.293,0.2855,0.286,0.28,0.2725,0.2635,0.268,0.2645,0.2545,0.2575,0.2595,0.2585,0.2435,0.246,0.2875,0.3175,0.308,0.3015,0.301,0.282,0.2755,0.2805,0.2795,0.2785,0.2765,0.2685,0.2625,0.2575,0.2575,0.264,0.262,0.2545,0.254,0.2585,0.258,0.258,0.272,0.276,0.2705,0.265,0.265,0.267,0.26,0.272,0.263,0.253,0.2575,0.2625,0.271,0.259,0.2545,0.256,0.264,0.2765,0.2715,0.271,0.288,0.286,0.265,0.256,0.259,0.268,0.274,0.2725,0.264,0.2615,0.26,0.253,0.254,0.2545,0.251,0.243,0.2525,0.2615,0.2465,0.254,0.265,0.259,0.263,0.2595,1.0
0.26,0.262,0.2495,0.2455,0.2585,0.2525,0.2515,0.268,0.2595,0.2485,0.2405,0.2305,0.241,0.251,0.2315,0.2215,0.2305,0.223,0.2275,0.2205,0.214,0.221,0.2365,0.244,0.237,0.2395,0.229,0.24,0.2475,0.2375,0.241,0.25,0.2525,0.251,0.2525,0.2505,0.2415,0.2425,0.2515,0.248,0.247,0.2465,0.246,0.2535,0.252,0.248,0.2495,0.247,0.2455,0.251,0.27,0.27,0.257,0.266,0.275,0.2805,0.2545,0.237,0.251,0.2565,0.26,0.263,0.2685,0.263,0.268,0.2745,0.2625,0.2625,0.269,0.267,0.274,0.2665,0.249,0.2535,0.2485,0.26,0.2795,0.289,0.308,0.3065,0.321,0.3475,0.34,0.3295,0.33,0.329,0.325,0.32,0.315,0.317,0.3265,0.322,0.3085,0.302,0.306,0.309,0.3165,0.33,0.3295,0.33,0.3275,0.3165,0.3035,0.3025,0.307,0.2995,0.277,0.2465,0.2445,0.255,0.26,0.255,0.2465,0.248,0.251,0.244,0.2285,0.2225,0.2225,0.2255,0.2335,0.245,0.243,0.242,0.2485,0.241,0.232,0.223,0.2265,0.218,0.2165,0.2275,0.237,0.2355,0.2155,0.214,0.214,0.221,0.2265,0.2155,0.2105,0.215,0.213,0.215,0.236,0.23,0.211,0.2195,0.2235,0.223,0.2405,0.244,0.2225,0.1995,0.2,0.2115,0.2115,0.22,0.222,0.2165,0.2165,0.2175,0.225,0.219,0.219,0.2175,0.2115,0.224,0.223,0.212,0.209,0.2035,0.183,0.1645,0.1705,0.169,0.1615,0.156,0.142,0.1505,0.1555,0.151,0.171,0.187,0.1915,0.212,0.222,0.222,0.239,0.2575,0.2915,0.2995,0.2925,0.3155,0.3385,0.376,0.4255,0.479,0.527,0.559,0.597,0.645,0.6945,0.732,0.746,0.7595,0.76,0.7275,0.7,0.6605,0.591,0.5175,0.448,0.387,0.338,0.2865,0.2335,0.2025,0.1915,0.1905,0.155,0.1215,0.117,0.094,0.0905,0.089,0.085,0.087,0.085,0.0815,0.0875,0.118,0.1115,0.099,0.116,0.1315,0.134,0.1345,0.1475,0.1605,0.1615,0.1575,0.168,0.1855,0.205,0.222,0.219,0.2165,0.215,0.208,0.218,0.224,0.225,0.219,0.2135,0.218,0.2235,0.2265,0.222,0.2345,0.235,0.235,0.243,0.241,0.246,0.242,0.248,0.248,0.247,0.2565,0.2535,0.24,0.23,0.2305,0.2255,0.232,0.2305,0.2255,0.222,0.2215,0.2315,0.2365,0.2465,0.242,0.2395,0.246,0.239,0.2415,0.2405,0.238,0.243,0.2445,0.24,0.227,0.227,0.236,0.237,0.224,0.212,0.222,0.223,0.222,0.2215,0.2195,0.221,0.23,0.2545,0.275,0.2865,0.282,0.2755,0.264,0.249,0.248,0.2495,0.244,0.2395,0.2525,0.2665,0.263,0.254,0.259,0.265,0.255,0.259,0.2645,0.2555,0.2535,0.2585,0.263,0.261,0.2635,0.265,0.266,0.2615,0.248,0.247,0.242,0.239,0.243,0.2475,0.2455,0.244,0.259,0.2655,0.2705,0.2745,0.2665,0.2665,0.2735,0.279,0.2805,0.272,0.271,0.271,0.2635,0.257,0.248,0.2505,0.2535,0.2555,0.2645,0.2705,0.273,0.2695,0.2775,0.2925,0.2905,0.283,0.286,0.283,0.286,0.2675,0.2505,0.272,0.2655,0.2515,0.2495,0.254,0.255,0.263,0.27,0.2655,0.2835,0.31,0.3335,0.334,0.319,0.3125,0.305,0.2995,0.305,0.3085,0.307,0.3075,0.3005,0.3,0.291,0.284,0.281,0.266,0.2755,0.292,0.304,0.3255,0.3345,0.342,0.3545,0.3445,0.333,0.3305,0.3255,0.3375,0.3475,0.34,0.3375,0.3335,0.3295,0.333,0.3445,0.3545,0.3575,0.361,0.354,0.3555,0.3545,0.3525,0.366,0.3635,0.3575,0.358,0.362,0.366,0.361,0.3605,0.364,0.364,0.368,0.381,0.3845,0.376,0.377,0.385,0.395,0.3955,0.3845,0.384,0.3825,0.3835,0.4005,0.401,0.393,0.391,0.3895,0.3835,0.363,0.3695,0.3825,0.381,0.3885,0.394,0.3855,0.3815,0.4015,0.393,0.385,0.396,0.398,0.403,0.404,0.4055,0.393,0.3765,0.3675,0.362,0.3565,0.358,0.354,0.3365,0.336,0.341,0.3545,0.3675,0.365,0.3735,0.38,0.368,0.36,0.359,0.3505,0.3455,0.3345,0.32,0.3235,0.322,0.3065,0.294,0.2945,0.31,0.3145,0.3045,0.298,0.298,0.3055,0.304,0.296,0.2975,0.29,0.283,0.286,0.2895,0.2885,0.2845,0.279,0.279,0.2715,0.2575,0.2545,0.2475,0.2415,0.2415,0.2345,0.233,0.244,0.2525,0.259,0.261,0.283,0.2975,0.2835,0.2775,0.2815,0.278,0.254,0.2345,0.2395,0.243,0.239,0.2365,0.241,0.249,0.2495,0.2525,0.251,0.2425,0.2445,0.241,0.2375,0.246,0.243,0.2405,0.235,0.219,0.212,0.2245,0.247,0.2475,0.2425,0.24,0.229,0.2395,0.247,0.2495,0.2545,0.248,0.2505,0.253,0.2545,0.2455,0.2335,0.228,0.2295,0.237,0.2285,0.2275,0.241,0.2345,0.2305,0.2305,0.225,0.2245,0.2255,0.226,0.2245,0.2295,0.2365,0.2385,0.236,0.2335,0.224,0.2375,0.2435,0.22,0.209,0.201,0.21,0.22,0.223,0.235,0.247,0.2485,0.2395,0.24,0.2375,0.24,0.244,0.232,0.2335,0.2415,0.242,0.2455,0.2475,0.2515,0.245,0.2275,0.219,0.222,0.221,0.2165,0.2105,0.202,0.2185,0.23,0.233,0.236,0.226,0.2235,0.2235,0.2295,0.229,0.225,0.23,0.227,0.215,0.2105,0.2085,0.2115,0.2095,0.2135,0.2285,0.229,0.2255,0.222,0.219,0.2215,0.227,0.23,0.235,0.241,0.238,0.2275,1.0
0.2215,0.2145,0.2135,0.2125,0.208,0.215,0.2125,0.2085,0.2165,0.2245,0.229,0.2225,0.2215,0.2205,0.2195,0.213,0.2095,0.2195,0.217,0.223,0.225,0.2325,0.226,0.215,0.2325,0.235,0.2305,0.2075,0.206,0.213,0.207,0.221,0.2365,0.239,0.2355,0.24,0.2255,0.233,0.249,0.242,0.23,0.2305,0.237,0.232,0.24,0.2285,0.216,0.2055,0.2155,0.233,0.233,0.239,0.23,0.235,0.238,0.245,0.274,0.2885,0.287,0.2905,0.2795,0.271,0.2735,0.2655,0.2655,0.2695,0.2765,0.273,0.27,0.2775,0.2795,0.278,0.2925,0.313,0.309,0.3015,0.302,0.3005,0.3005,0.309,0.3065,0.298,0.2975,0.2995,0.2965,0.2975,0.302,0.302,0.301,0.297,0.2955,0.2975,0.3055,0.3125,0.3135,0.306,0.3,0.306,0.3015,0.294,0.306,0.3045,0.285,0.285,0.279,0.2785,0.279,0.2495,0.257,0.2635,0.2535,0.2585,0.2565,0.258,0.25,0.241,0.236,0.232,0.2285,0.2265,0.2215,0.2185,0.215,0.211,0.2135,0.206,0.202,0.207,0.2175,0.2285,0.23,0.2225,0.222,0.217,0.19,0.1725,0.169,0.1665,0.172,0.1915,0.2015,0.2245,0.249,0.2385,0.2475,0.259,0.254,0.2525,0.2455,0.2365,0.223,0.223,0.2315,0.234,0.224,0.2195,0.2235,0.2205,0.217,0.211,0.214,0.2115,0.2025,0.2045,0.208,0.2005,0.202,0.2085,0.2025,0.2025,0.1965,0.186,0.179,0.159,0.148,0.1515,0.154,0.157,0.159,0.166,0.164,0.1615,0.1755,0.1865,0.19,0.1915,0.1965,0.217,0.244,0.2735,0.3055,0.331,0.3485,0.367,0.4015,0.442,0.485,0.5195,0.554,0.5985,0.6365,0.6565,0.68,0.7115,0.7315,0.7425,0.7295,0.7035,0.674,0.639,0.58,0.5135,0.45,0.4045,0.366,0.3145,0.2685,0.228,0.222,0.2025,0.1685,0.146,0.1215,0.109,0.11,0.118,0.113,0.1265,0.158,0.1395,0.1405,0.165,0.163,0.1725,0.1725,0.175,0.1695,0.1615,0.1665,0.1645,0.161,0.163,0.1765,0.183,0.1935,0.2105,0.225,0.2395,0.2415,0.237,0.236,0.24,0.243,0.2375,0.2375,0.248,0.2495,0.245,0.2425,0.2325,0.217,0.2215,0.222,0.218,0.227,0.224,0.2315,0.244,0.249,0.2445,0.248,0.2565,0.2455,0.24,0.238,0.244,0.243,0.2105,0.204,0.218,0.224,0.224,0.223,0.2255,0.23,0.243,0.2385,0.236,0.2475,0.246,0.2485,0.2515,0.2475,0.2595,0.2695,0.262,0.248,0.249,0.246,0.2405,0.244,0.237,0.2405,0.243,0.24,0.241,0.2355,0.2355,0.2425,0.2495,0.257,0.2575,0.2565,0.257,0.254,0.255,0.2465,0.234,0.2205,0.2145,0.2185,0.2075,0.2035,0.1985,0.213,0.247,0.28,0.2955,0.289,0.293,0.2895,0.293,0.293,0.2745,0.262,0.2685,0.269,0.263,0.2605,0.2605,0.2645,0.264,0.2595,0.252,0.271,0.276,0.267,0.2685,0.264,0.2745,0.277,0.271,0.274,0.278,0.279,0.27,0.2645,0.2655,0.263,0.258,0.2625,0.2625,0.2575,0.2575,0.2615,0.2725,0.271,0.263,0.275,0.2955,0.2915,0.28,0.291,0.2925,0.2825,0.2775,0.2765,0.2815,0.28,0.2845,0.2895,0.291,0.2975,0.2905,0.2895,0.2985,0.2955,0.2955,0.2985,0.2985,0.303,0.3115,0.3085,0.3015,0.3085,0.3265,0.33,0.318,0.3125,0.31,0.3145,0.3125,0.3105,0.325,0.3285,0.3245,0.33,0.3305,0.327,0.3235,0.3265,0.3315,0.336,0.3385,0.321,0.312,0.312,0.3235,0.3505,0.341,0.3355,0.354,0.37,0.374,0.3825,0.4215,0.4265,0.3955,0.3805,0.3815,0.381,0.3755,0.3695,0.377,0.386,0.374,0.3595,0.359,0.37,0.3775,0.3745,0.3815,0.405,0.4185,0.413,0.4105,0.407,0.397,0.406,0.414,0.4105,0.4125,0.414,0.411,0.4035,0.407,0.3975,0.3855,0.3925,0.398,0.3925,0.386,0.389,0.3955,0.4015,0.4015,0.392,0.382,0.384,0.391,0.399,0.4,0.4,0.398,0.386,0.3815,0.3705,0.362,0.3715,0.3645,0.361,0.356,0.3505,0.3535,0.3545,0.3555,0.354,0.359,0.3555,0.352,0.3445,0.3375,0.3305,0.3265,0.326,0.31,0.3015,0.2995,0.296,0.293,0.297,0.3125,0.316,0.3135,0.3305,0.3275,0.318,0.3225,0.311,0.302,0.3055,0.298,0.2875,0.2955,0.2955,0.2885,0.284,0.2835,0.284,0.28,0.2765,0.2685,0.267,0.27,0.266,0.267,0.2755,0.2745,0.267,0.267,0.267,0.267,0.274,0.276,0.267,0.246,0.2455,0.254,0.247,0.245,0.2385,0.2385,0.243,0.24,0.2425,0.245,0.2475,0.2525,0.255,0.2585,0.259,0.257,0.2635,0.2675,0.2605,0.2565,0.259,0.2585,0.249,0.244,0.2375,0.235,0.243,0.2415,0.249,0.256,0.2475,0.2325,0.221,0.2385,0.251,0.249,0.2655,0.278,0.271,0.246,0.241,0.246,0.232,0.234,0.2305,0.2315,0.236,0.2475,0.263,0.259,0.2725,0.2855,0.2755,0.266,0.258,0.2635,0.277,0.266,0.25,0.251,0.258,0.266,0.261,0.248,0.2515,0.245,0.2365,0.243,0.244,0.242,0.245,0.252,0.2485,0.251,0.255,0.254,0.2635,0.2595,0.2555,0.258,0.2535,0.255,0.2535,0.245,0.2265,0.229,0.2415,0.2285,0.221,0.228,0.2435,0.2375,0.2375,0.237,0.228,0.24,0.2465,0.255,0.2435,0.242,0.2445,0.233,0.244,0.238,0.224,0.2315,0.2305,0.2195,0.2205,0.223,0.2225,0.215,0.217,0.2175,0.227,1.0
0.245,0.2575,0.267,0.26,0.2565,0.2515,0.249,0.2435,0.2425,0.2525,0.247,0.239,0.241,0.249,0.253,0.243,0.2355,0.229,0.2365,0.252,0.254,0.2485,0.239,0.2435,0.241,0.2315,0.234,0.2415,0.2505,0.251,0.25,0.242,0.237,0.2495,0.258,0.2505,0.2405,0.2435,0.2475,0.2495,0.259,0.267,0.261,0.2615,0.2635,0.2545,0.241,0.2455,0.2615,0.252,0.233,0.229,0.2525,0.265,0.2745,0.287,0.281,0.2875,0.308,0.3165,0.3015,0.2905,0.294,0.2895,0.292,0.292,0.2855,0.2875,0.2885,0.289,0.285,0.282,0.293,0.309,0.318,0.3185,0.3125,0.3175,0.32,0.325,0.3405,0.345,0.3485,0.3455,0.334,0.33,0.332,0.321,0.3205,0.323,0.3175,0.322,0.3285,0.331,0.3355,0.344,0.345,0.348,0.3515,0.345,0.3495,0.3415,0.3105,0.307,0.319,0.3125,0.3,0.2885,0.2755,0.2795,0.278,0.2675,0.2645,0.2565,0.252,0.2455,0.244,0.2435,0.249,0.265,0.2645,0.25,0.242,0.2435,0.24,0.237,0.2375,0.247,0.254,0.252,0.256,0.2485,0.24,0.2355,0.243,0.25,0.2365,0.2365,0.244,0.2375,0.2465,0.2625,0.255,0.232,0.226,0.236,0.218,0.211,0.216,0.2275,0.249,0.243,0.2425,0.2405,0.25,0.251,0.2385,0.2425,0.24,0.2425,0.233,0.2355,0.25,0.2465,0.251,0.2435,0.236,0.232,0.2205,0.207,0.195,0.1855,0.174,0.1625,0.1445,0.1435,0.1545,0.149,0.1395,0.148,0.1625,0.177,0.196,0.211,0.2195,0.227,0.2325,0.2245,0.2355,0.2625,0.2775,0.306,0.336,0.352,0.3775,0.4105,0.445,0.489,0.5345,0.584,0.625,0.6645,0.712,0.747,0.772,0.777,0.756,0.737,0.74,0.7275,0.6785,0.603,0.5415,0.4895,0.4295,0.375,0.3225,0.2965,0.276,0.2625,0.252,0.2295,0.2075,0.1955,0.186,0.1635,0.1485,0.1335,0.1345,0.138,0.133,0.1425,0.159,0.172,0.1715,0.1735,0.1765,0.1815,0.1735,0.162,0.169,0.164,0.162,0.1795,0.207,0.224,0.2385,0.2605,0.2615,0.26,0.281,0.2965,0.281,0.271,0.2635,0.274,0.2785,0.267,0.2765,0.2735,0.2675,0.273,0.27,0.2645,0.2685,0.2695,0.2685,0.2645,0.259,0.254,0.249,0.2525,0.257,0.251,0.2515,0.267,0.2675,0.2555,0.2535,0.2675,0.2725,0.273,0.2745,0.2755,0.276,0.2685,0.2695,0.266,0.257,0.2605,0.2655,0.26,0.256,0.2615,0.265,0.2615,0.2695,0.2765,0.273,0.273,0.272,0.2795,0.2725,0.268,0.274,0.2745,0.285,0.287,0.276,0.2635,0.262,0.254,0.241,0.2415,0.243,0.2395,0.24,0.256,0.2655,0.2755,0.2785,0.2795,0.3005,0.3,0.2865,0.2805,0.273,0.284,0.289,0.2765,0.2805,0.278,0.272,0.2715,0.2855,0.2935,0.282,0.2855,0.284,0.289,0.298,0.2875,0.285,0.29,0.2915,0.2865,0.2805,0.2775,0.271,0.2695,0.268,0.268,0.2655,0.269,0.2765,0.2795,0.297,0.302,0.2985,0.3105,0.311,0.304,0.2965,0.291,0.2985,0.3075,0.3055,0.2975,0.29,0.286,0.2825,0.2815,0.2835,0.281,0.282,0.301,0.3205,0.314,0.3045,0.314,0.3215,0.316,0.3185,0.3225,0.32,0.3265,0.3305,0.321,0.3225,0.3375,0.3295,0.3165,0.311,0.319,0.33,0.329,0.326,0.3305,0.345,0.346,0.3485,0.3535,0.3535,0.3545,0.354,0.3525,0.349,0.3475,0.3485,0.3425,0.353,0.3585,0.3525,0.362,0.3645,0.3685,0.3675,0.3655,0.3665,0.37,0.374,0.3715,0.3815,0.3735,0.3635,0.3785,0.3965,0.3965,0.3805,0.3695,0.373,0.3955,0.411,0.43,0.4485,0.4375,0.412,0.413,0.4245,0.414,0.413,0.4115,0.4065,0.4125,0.4145,0.4095,0.4145,0.423,0.4185,0.406,0.4,0.4095,0.418,0.4155,0.4275,0.4375,0.4225,0.4115,0.419,0.4275,0.4305,0.429,0.431,0.4375,0.4485,0.4465,0.428,0.4245,0.419,0.413,0.4095,0.404,0.4085,0.4085,0.406,0.4115,0.416,0.4105,0.403,0.4095,0.4025,0.382,0.383,0.3865,0.3825,0.389,0.395,0.4,0.395,0.383,0.38,0.366,0.3525,0.347,0.3425,0.35,0.36,0.3515,0.3475,0.351,0.355,0.366,0.3635,0.3665,0.356,0.334,0.335,0.333,0.316,0.2995,0.3035,0.3005,0.292,0.3015,0.304,0.298,0.3,0.3135,0.3165,0.307,0.3105,0.3045,0.3065,0.3165,0.309,0.295,0.2865,0.298,0.308,0.304,0.299,0.298,0.3,0.2915,0.2775,0.2735,0.2765,0.285,0.286,0.279,0.2775,0.2835,0.292,0.287,0.281,0.2865,0.291,0.2995,0.2955,0.2855,0.282,0.28,0.281,0.2845,0.285,0.2715,0.268,0.2745,0.294,0.302,0.2835,0.2805,0.2825,0.28,0.279,0.2835,0.2775,0.272,0.2685,0.272,0.2735,0.2795,0.292,0.283,0.2825,0.2735,0.287,0.296,0.288,0.2895,0.276,0.283,0.2865,0.2945,0.2965,0.2685,0.2555,0.2655,0.281,0.281,0.283,0.284,0.2785,0.2945,0.2945,0.2785,0.2795,0.281,0.272,0.264,0.282,0.2875,0.2875,0.29,0.2835,0.2895,0.2765,0.282,0.28,0.2645,0.2705,0.258,0.2505,0.2585,0.267,0.271,0.274,0.272,0.271,0.275,0.2705,0.2685,0.2655,0.2575,0.255,0.257,0.2435,0.235,0.246,0.2555,0.26,0.2675,0.2775,0.266,0.2655,0.2725,0.268,0.274,0.268,0.2535,0.27,0.287,0.2695,0.2535,0.255,0.2595,0.2555,0.258,0.266,0.2695,0.2685,1.0
0.28,0.2825,0.281,0.28,0.2845,0.272,0.2695,0.283,0.2805,0.2665,0.2485,0.2525,0.2575,0.263,0.2755,0.27,0.2715,0.285,0.2905,0.2865,0.2785,0.282,0.28,0.2675,0.261,0.258,0.26,0.26,0.2645,0.265,0.2505,0.2485,0.251,0.2425,0.269,0.288,0.287,0.305,0.3075,0.3045,0.2995,0.312,0.3055,0.29,0.2965,0.2905,0.29,0.2865,0.2845,0.2895,0.286,0.286,0.285,0.279,0.2875,0.2925,0.2945,0.301,0.3095,0.316,0.3065,0.303,0.2995,0.2995,0.307,0.3085,0.3095,0.3145,0.3195,0.3155,0.3215,0.3345,0.3365,0.3445,0.3395,0.3345,0.343,0.32,0.3085,0.331,0.346,0.3505,0.3555,0.367,0.36,0.346,0.3495,0.346,0.349,0.3585,0.3455,0.331,0.3355,0.338,0.3365,0.3475,0.351,0.3525,0.354,0.339,0.3385,0.3455,0.336,0.348,0.3585,0.3315,0.327,0.3235,0.313,0.316,0.307,0.3065,0.3005,0.3015,0.2925,0.2855,0.2945,0.284,0.2805,0.2945,0.299,0.2805,0.2735,0.285,0.281,0.285,0.2935,0.281,0.2765,0.2705,0.27,0.2685,0.2645,0.2695,0.266,0.274,0.2765,0.2695,0.258,0.2505,0.2445,0.2425,0.265,0.269,0.2695,0.276,0.279,0.286,0.276,0.2535,0.2485,0.2565,0.2515,0.246,0.251,0.264,0.264,0.2575,0.2645,0.258,0.2555,0.249,0.2435,0.246,0.24,0.259,0.2785,0.272,0.2425,0.2285,0.232,0.231,0.2295,0.2175,0.2015,0.189,0.183,0.187,0.183,0.1895,0.2075,0.208,0.214,0.2185,0.2265,0.235,0.2335,0.2435,0.254,0.2625,0.2805,0.3055,0.326,0.3445,0.362,0.384,0.4105,0.456,0.5255,0.582,0.6225,0.6775,0.739,0.77,0.782,0.789,0.8035,0.8205,0.793,0.7565,0.731,0.685,0.6125,0.5235,0.4545,0.405,0.3545,0.3235,0.2975,0.265,0.2565,0.236,0.215,0.2085,0.1795,0.1445,0.1345,0.1555,0.1495,0.126,0.1285,0.1385,0.1455,0.161,0.1665,0.159,0.187,0.189,0.1645,0.186,0.2055,0.2095,0.2085,0.2135,0.221,0.2225,0.23,0.2445,0.253,0.252,0.255,0.2495,0.2575,0.272,0.2685,0.2615,0.261,0.267,0.2695,0.2815,0.284,0.2765,0.279,0.2775,0.286,0.285,0.2805,0.281,0.263,0.2545,0.2665,0.275,0.281,0.2775,0.273,0.2735,0.264,0.277,0.277,0.2635,0.2865,0.302,0.2925,0.289,0.2855,0.273,0.2845,0.2985,0.294,0.287,0.285,0.276,0.267,0.279,0.272,0.261,0.2665,0.2755,0.2675,0.258,0.265,0.2695,0.2735,0.2845,0.2925,0.29,0.287,0.3015,0.3155,0.318,0.31,0.302,0.304,0.2855,0.2835,0.292,0.278,0.2795,0.2955,0.297,0.2885,0.29,0.2945,0.3045,0.313,0.3115,0.302,0.291,0.2815,0.271,0.2785,0.2835,0.289,0.2865,0.277,0.286,0.2785,0.2855,0.299,0.2965,0.3035,0.302,0.3085,0.3115,0.3215,0.3295,0.321,0.322,0.313,0.3065,0.3035,0.3015,0.301,0.301,0.306,0.3055,0.3005,0.305,0.3115,0.303,0.3045,0.3165,0.318,0.315,0.309,0.3075,0.2965,0.292,0.298,0.2975,0.301,0.3145,0.323,0.3285,0.3285,0.3275,0.344,0.342,0.3235,0.331,0.34,0.342,0.358,0.3445,0.334,0.337,0.334,0.3355,0.334,0.337,0.3455,0.347,0.3365,0.3385,0.345,0.355,0.3485,0.3405,0.3525,0.3535,0.359,0.3655,0.3635,0.3665,0.3745,0.3815,0.3755,0.3595,0.3495,0.3625,0.37,0.364,0.367,0.3675,0.3665,0.364,0.366,0.3725,0.371,0.3715,0.3725,0.3725,0.379,0.385,0.402,0.415,0.409,0.4055,0.408,0.418,0.431,0.437,0.428,0.416,0.41,0.4105,0.4115,0.419,0.4265,0.4195,0.428,0.4315,0.421,0.4205,0.4315,0.4315,0.4285,0.4385,0.443,0.4335,0.4255,0.421,0.402,0.4025,0.4075,0.4115,0.4085,0.415,0.4335,0.431,0.4335,0.455,0.47,0.446,0.4375,0.4415,0.43,0.4495,0.456,0.4395,0.439,0.4395,0.4355,0.421,0.4125,0.4045,0.402,0.401,0.3975,0.396,0.391,0.4055,0.4195,0.4285,0.4265,0.4145,0.4085,0.407,0.403,0.3935,0.3955,0.3855,0.364,0.3635,0.3665,0.3565,0.334,0.338,0.359,0.36,0.368,0.354,0.3555,0.3625,0.3525,0.351,0.342,0.3475,0.344,0.336,0.327,0.3165,0.318,0.323,0.306,0.3045,0.327,0.3175,0.307,0.3165,0.318,0.3115,0.305,0.2925,0.2915,0.304,0.3085,0.31,0.311,0.3025,0.2985,0.293,0.2885,0.2845,0.2835,0.285,0.272,0.2655,0.2635,0.27,0.2695,0.2615,0.2705,0.2715,0.2735,0.297,0.317,0.3075,0.294,0.2965,0.2885,0.296,0.3075,0.2945,0.2885,0.2835,0.271,0.272,0.278,0.287,0.2955,0.286,0.2825,0.303,0.307,0.303,0.3115,0.2935,0.288,0.289,0.28,0.2715,0.273,0.2795,0.278,0.2855,0.2835,0.283,0.286,0.2935,0.295,0.289,0.2985,0.2945,0.284,0.275,0.257,0.2625,0.2835,0.287,0.2895,0.2915,0.277,0.2735,0.273,0.269,0.26,0.2635,0.271,0.256,0.263,0.279,0.288,0.287,0.2835,0.285,0.285,0.286,0.282,0.2885,0.2825,0.269,0.2645,0.261,0.258,0.255,0.258,0.259,0.2585,0.267,0.276,0.2715,0.2715,0.2775,0.272,0.2705,0.277,0.2705,0.2605,0.237,0.2355,0.2575,0.2475,0.2435,0.252,0.2745,0.2915,0.284,0.2675,0.256,0.2495,0.2615,0.2895,0.289,0.292,0.2825,0.267,0.2775,0.2665,0.259,0.2605,1.0
0.247,0.2455,0.2475,0.234,0.244,0.24,0.234,0.244,0.2445,0.24,0.241,0.248,0.2495,0.2515,0.255,0.2515,0.2465,0.247,0.2535,0.2535,0.2465,0.249,0.2435,0.239,0.2455,0.249,0.2435,0.2385,0.2415,0.242,0.2365,0.222,0.2265,0.249,0.256,0.253,0.255,0.273,0.2805,0.2635,0.266,0.2735,0.2595,0.2705,0.2685,0.255,0.257,0.2515,0.2545,0.2555,0.2725,0.2785,0.2695,0.2745,0.281,0.2815,0.2845,0.297,0.2945,0.29,0.2815,0.28,0.2815,0.277,0.271,0.255,0.269,0.3085,0.3145,0.305,0.309,0.3045,0.2975,0.2975,0.3085,0.316,0.3265,0.3235,0.314,0.324,0.3325,0.335,0.334,0.3375,0.336,0.3275,0.318,0.3195,0.315,0.31,0.323,0.327,0.324,0.3185,0.315,0.3175,0.329,0.338,0.339,0.3365,0.3315,0.327,0.319,0.315,0.3065,0.2985,0.294,0.281,0.272,0.279,0.2745,0.2615,0.2655,0.259,0.259,0.262,0.254,0.2535,0.2515,0.2585,0.272,0.2665,0.2555,0.255,0.245,0.223,0.2095,0.2225,0.2285,0.2215,0.231,0.2295,0.2275,0.229,0.2245,0.2245,0.2125,0.24,0.2705,0.2645,0.2585,0.245,0.2455,0.243,0.234,0.235,0.233,0.226,0.2195,0.2095,0.2125,0.234,0.234,0.2435,0.2505,0.2335,0.2285,0.237,0.2455,0.2465,0.24,0.231,0.2375,0.239,0.2325,0.219,0.2015,0.197,0.202,0.2035,0.201,0.1945,0.1845,0.173,0.162,0.1725,0.1775,0.1665,0.1805,0.1885,0.1715,0.174,0.1775,0.1765,0.1955,0.211,0.209,0.21,0.2185,0.226,0.2595,0.2905,0.3075,0.3335,0.339,0.3455,0.3825,0.433,0.4825,0.527,0.567,0.604,0.649,0.6955,0.718,0.731,0.748,0.754,0.7345,0.698,0.6615,0.6105,0.5595,0.5015,0.4445,0.3975,0.338,0.3045,0.281,0.249,0.2545,0.2345,0.1965,0.1795,0.1325,0.104,0.1,0.092,0.0855,0.0965,0.1015,0.0885,0.085,0.098,0.121,0.146,0.157,0.1535,0.1565,0.152,0.172,0.191,0.1825,0.182,0.1855,0.185,0.187,0.1935,0.203,0.211,0.2055,0.2165,0.2295,0.239,0.264,0.2735,0.2745,0.2695,0.2585,0.2485,0.241,0.232,0.2285,0.2275,0.2385,0.243,0.2345,0.2465,0.246,0.2435,0.2435,0.2415,0.239,0.237,0.2475,0.261,0.27,0.262,0.2565,0.2635,0.2655,0.268,0.265,0.2545,0.2555,0.257,0.249,0.249,0.2515,0.253,0.253,0.256,0.2665,0.2635,0.2595,0.251,0.244,0.2465,0.239,0.235,0.24,0.2495,0.248,0.248,0.257,0.249,0.2425,0.2555,0.25,0.2365,0.24,0.254,0.266,0.287,0.2995,0.278,0.2665,0.262,0.2485,0.267,0.299,0.285,0.2715,0.2805,0.273,0.2665,0.2635,0.2575,0.259,0.252,0.244,0.2465,0.2435,0.2335,0.241,0.2655,0.276,0.2815,0.2835,0.2815,0.293,0.301,0.2965,0.2865,0.283,0.2825,0.276,0.272,0.278,0.2755,0.2735,0.2855,0.2895,0.277,0.2685,0.2765,0.2725,0.273,0.2805,0.282,0.289,0.2945,0.285,0.2805,0.292,0.297,0.299,0.2895,0.2905,0.2945,0.287,0.287,0.289,0.287,0.285,0.2915,0.2995,0.3005,0.296,0.286,0.295,0.2975,0.2935,0.306,0.3035,0.3,0.2955,0.312,0.325,0.3175,0.31,0.3105,0.3185,0.3125,0.3095,0.308,0.316,0.331,0.326,0.311,0.3195,0.3255,0.3215,0.3185,0.3285,0.3365,0.3275,0.322,0.319,0.3295,0.3245,0.331,0.342,0.3435,0.3445,0.347,0.3565,0.339,0.3545,0.374,0.3785,0.3735,0.357,0.356,0.35,0.356,0.367,0.3685,0.3755,0.374,0.3655,0.3725,0.379,0.376,0.3805,0.398,0.4065,0.405,0.4095,0.4135,0.4225,0.4105,0.3955,0.4065,0.399,0.388,0.389,0.3965,0.4085,0.405,0.399,0.3905,0.386,0.389,0.389,0.4035,0.4045,0.4015,0.4165,0.4095,0.403,0.4025,0.3965,0.408,0.4125,0.41,0.4175,0.403,0.387,0.3865,0.3905,0.395,0.39,0.3885,0.3875,0.386,0.385,0.3865,0.385,0.3835,0.3895,0.383,0.3745,0.367,0.367,0.362,0.35,0.352,0.3535,0.3575,0.352,0.3345,0.3175,0.3275,0.3445,0.337,0.3315,0.325,0.326,0.331,0.328,0.3175,0.3085,0.3065,0.309,0.3125,0.298,0.296,0.3035,0.306,0.313,0.3055,0.3,0.304,0.2895,0.274,0.26,0.2385,0.253,0.2725,0.27,0.272,0.269,0.272,0.2765,0.286,0.2915,0.281,0.264,0.2615,0.272,0.266,0.2535,0.2645,0.2805,0.2845,0.2805,0.2625,0.2625,0.2735,0.2695,0.27,0.2655,0.252,0.253,0.25,0.243,0.2465,0.246,0.2495,0.2545,0.2535,0.253,0.2665,0.2665,0.2535,0.2525,0.261,0.27,0.2675,0.263,0.2665,0.263,0.253,0.2415,0.237,0.2525,0.259,0.257,0.259,0.2505,0.2385,0.2435,0.2545,0.2555,0.26,0.2665,0.2635,0.264,0.2605,0.256,0.261,0.2545,0.254,0.257,0.257,0.2575,0.254,0.2485,0.2485,0.2455,0.2395,0.251,0.2515,0.255,0.2575,0.2595,0.263,0.2455,0.247,0.2465,0.2375,0.2365,0.2435,0.246,0.222,0.221,0.2295,0.228,0.207,0.175,0.1925,0.22,0.249,0.272,0.2735,0.275,0.2715,0.278,0.2805,0.2865,0.2815,0.2655,0.26,0.25,0.236,0.233,0.248,0.248,0.24,0.242,0.2455,0.2565,0.2595,0.259,0.2655,0.268,0.2515,0.237,0.2505,0.2605,0.258,0.2585,0.2525,0.2355,0.2245,0.227,0.2305,0.228,0.2235,0.219,1.0
0.243,0.257,0.2525,0.2405,0.24,0.249,0.2555,0.26,0.26,0.2545,0.248,0.2385,0.234,0.2355,0.229,0.2285,0.232,0.2245,0.2275,0.244,0.246,0.228,0.241,0.258,0.2535,0.243,0.2235,0.2375,0.254,0.253,0.256,0.2515,0.2475,0.2455,0.2365,0.2375,0.2415,0.238,0.2415,0.253,0.2535,0.2515,0.2475,0.2405,0.244,0.245,0.247,0.244,0.241,0.236,0.2325,0.247,0.2625,0.2805,0.277,0.248,0.2425,0.257,0.27,0.279,0.2815,0.2785,0.278,0.27,0.2755,0.2795,0.2855,0.294,0.292,0.3045,0.296,0.2845,0.2955,0.306,0.3015,0.295,0.2925,0.2785,0.2825,0.3025,0.3045,0.321,0.356,0.3705,0.3525,0.346,0.3435,0.3325,0.336,0.3305,0.331,0.332,0.3385,0.334,0.3175,0.314,0.323,0.3265,0.317,0.3145,0.3125,0.305,0.2885,0.281,0.2885,0.3035,0.311,0.3025,0.297,0.2975,0.2895,0.2815,0.271,0.2565,0.262,0.253,0.2325,0.23,0.2335,0.241,0.24,0.233,0.2325,0.2375,0.241,0.245,0.2465,0.251,0.252,0.2405,0.2435,0.244,0.23,0.224,0.219,0.219,0.225,0.2215,0.22,0.227,0.226,0.224,0.2195,0.2135,0.224,0.2345,0.237,0.2425,0.248,0.2525,0.2545,0.2425,0.226,0.223,0.2245,0.2155,0.207,0.2065,0.2155,0.2135,0.2055,0.2045,0.2155,0.2365,0.236,0.2205,0.2215,0.233,0.2195,0.2085,0.2025,0.1895,0.1845,0.169,0.155,0.1505,0.1485,0.1535,0.1525,0.146,0.151,0.1545,0.154,0.169,0.1845,0.188,0.2025,0.222,0.241,0.2675,0.299,0.325,0.3395,0.3395,0.3475,0.3695,0.3885,0.435,0.492,0.545,0.5865,0.621,0.668,0.695,0.718,0.744,0.757,0.762,0.755,0.7235,0.67,0.6115,0.5445,0.472,0.4125,0.355,0.329,0.31,0.266,0.252,0.2485,0.251,0.2375,0.209,0.1935,0.168,0.1515,0.1395,0.1195,0.1145,0.113,0.1295,0.151,0.141,0.133,0.1525,0.173,0.1765,0.1815,0.165,0.154,0.1625,0.168,0.176,0.18,0.1975,0.2115,0.2145,0.219,0.221,0.2315,0.2295,0.224,0.232,0.238,0.247,0.252,0.246,0.2395,0.2335,0.233,0.24,0.2425,0.2505,0.2565,0.2475,0.2385,0.24,0.2495,0.25,0.252,0.258,0.2525,0.24,0.2375,0.233,0.232,0.2385,0.236,0.23,0.228,0.2375,0.247,0.2475,0.246,0.246,0.239,0.243,0.243,0.2265,0.238,0.2465,0.2345,0.242,0.2455,0.243,0.243,0.2385,0.2535,0.261,0.257,0.2515,0.2415,0.249,0.251,0.2425,0.2495,0.247,0.245,0.2495,0.2535,0.264,0.2615,0.266,0.274,0.2655,0.2415,0.23,0.2415,0.247,0.2515,0.25,0.257,0.276,0.267,0.27,0.2725,0.2575,0.257,0.2645,0.271,0.2605,0.261,0.266,0.266,0.2645,0.2585,0.255,0.248,0.255,0.256,0.2505,0.2585,0.2655,0.275,0.2785,0.277,0.279,0.275,0.271,0.263,0.2605,0.2605,0.2635,0.2685,0.264,0.2685,0.274,0.273,0.276,0.2785,0.276,0.269,0.2695,0.278,0.2805,0.2775,0.2775,0.2865,0.291,0.287,0.2845,0.287,0.2815,0.2735,0.28,0.274,0.2595,0.2715,0.299,0.304,0.2955,0.275,0.2605,0.27,0.2765,0.285,0.296,0.3045,0.2955,0.283,0.292,0.3095,0.3095,0.309,0.3145,0.314,0.3185,0.321,0.315,0.3115,0.315,0.3095,0.311,0.3165,0.325,0.339,0.333,0.3355,0.3425,0.34,0.3405,0.341,0.3485,0.35,0.341,0.342,0.347,0.3415,0.341,0.3415,0.3335,0.3345,0.3405,0.342,0.3485,0.3675,0.388,0.3895,0.379,0.385,0.3945,0.3845,0.3825,0.377,0.361,0.3535,0.354,0.361,0.362,0.3625,0.374,0.3915,0.3955,0.398,0.3985,0.384,0.3895,0.4055,0.4045,0.3965,0.3905,0.404,0.409,0.397,0.394,0.3845,0.378,0.3815,0.3855,0.385,0.389,0.3745,0.3655,0.395,0.403,0.403,0.4185,0.4215,0.4115,0.3955,0.371,0.371,0.391,0.392,0.383,0.375,0.363,0.3625,0.3635,0.361,0.3575,0.3565,0.3515,0.3545,0.377,0.374,0.363,0.3525,0.3375,0.336,0.3475,0.342,0.333,0.332,0.325,0.3225,0.3245,0.3375,0.3315,0.3185,0.3175,0.31,0.298,0.3025,0.303,0.3005,0.2975,0.289,0.295,0.287,0.28,0.276,0.264,0.2665,0.2695,0.2685,0.2605,0.2595,0.265,0.258,0.2565,0.259,0.254,0.2565,0.2585,0.259,0.2635,0.256,0.2595,0.2655,0.2585,0.2525,0.2565,0.2645,0.2665,0.264,0.246,0.238,0.243,0.246,0.2475,0.2345,0.2375,0.2485,0.236,0.2385,0.2735,0.2725,0.255,0.268,0.2595,0.245,0.25,0.247,0.243,0.2385,0.2155,0.224,0.237,0.2415,0.251,0.24,0.2555,0.27,0.2685,0.278,0.2735,0.26,0.249,0.254,0.2545,0.2355,0.228,0.234,0.2355,0.231,0.2365,0.246,0.2465,0.234,0.241,0.2535,0.2515,0.257,0.2565,0.2565,0.25,0.247,0.252,0.247,0.2415,0.238,0.239,0.2445,0.2445,0.2435,0.2425,0.233,0.2335,0.241,0.24,0.234,0.2325,0.2365,0.24,0.236,0.2345,0.239,0.2345,0.2255,0.22,0.234,0.239,0.23,0.227,0.222,0.2345,0.2615,0.2525,0.2385,0.2385,0.23,0.24,0.2415,0.2445,0.2445,0.2355,0.2375,0.224,0.227,0.2245,0.2125,0.2175,0.2345,0.2485,0.2435,0.223,0.2215,0.2355,0.234,0.2365,0.24,0.2415,0.245,0.252,0.246,0.2395,0.2395,0.2365,0.248,1.0
0.231,0.2295,0.2255,0.223,0.224,0.226,0.2385,0.237,0.2265,0.242,0.2365,0.222,0.2245,0.2165,0.225,0.233,0.2285,0.2245,0.2135,0.212,0.214,0.24,0.264,0.267,0.277,0.274,0.275,0.2615,0.2485,0.2545,0.2445,0.243,0.2495,0.243,0.2345,0.237,0.2545,0.267,0.261,0.2575,0.2585,0.259,0.258,0.247,0.2415,0.235,0.221,0.2405,0.254,0.251,0.2675,0.2685,0.2745,0.281,0.2865,0.2885,0.29,0.3015,0.2935,0.2915,0.2795,0.2675,0.272,0.267,0.2605,0.2575,0.2695,0.2795,0.272,0.2695,0.277,0.28,0.2865,0.298,0.307,0.316,0.31,0.3105,0.3115,0.305,0.317,0.3175,0.3175,0.327,0.3265,0.3315,0.3285,0.3165,0.3235,0.3285,0.328,0.3335,0.3315,0.3355,0.336,0.3295,0.3355,0.3345,0.334,0.3325,0.326,0.3125,0.298,0.296,0.294,0.287,0.2595,0.2385,0.2465,0.2695,0.279,0.282,0.2775,0.269,0.281,0.27,0.26,0.2625,0.2475,0.2525,0.2625,0.262,0.257,0.2395,0.226,0.219,0.216,0.2185,0.221,0.2245,0.232,0.2325,0.224,0.2325,0.2395,0.2355,0.241,0.2355,0.2275,0.225,0.2305,0.2355,0.2295,0.224,0.2205,0.219,0.216,0.217,0.2245,0.232,0.2295,0.217,0.2145,0.216,0.215,0.2105,0.219,0.2275,0.219,0.2125,0.208,0.2135,0.2105,0.2155,0.2275,0.2225,0.212,0.192,0.1875,0.18,0.1805,0.1805,0.15,0.1505,0.17,0.17,0.155,0.151,0.1525,0.138,0.1555,0.1885,0.2035,0.2035,0.192,0.1885,0.1845,0.194,0.212,0.229,0.2575,0.28,0.306,0.3265,0.339,0.366,0.4025,0.452,0.4995,0.5325,0.577,0.634,0.673,0.7005,0.7245,0.7415,0.75,0.7445,0.736,0.71,0.6695,0.6085,0.5485,0.498,0.446,0.4005,0.355,0.3145,0.2815,0.275,0.268,0.241,0.2095,0.1865,0.1715,0.146,0.125,0.117,0.1065,0.1045,0.1175,0.1265,0.1335,0.137,0.143,0.156,0.1685,0.172,0.1695,0.1705,0.173,0.175,0.1665,0.1675,0.1775,0.1795,0.189,0.1985,0.2115,0.218,0.215,0.225,0.23,0.228,0.232,0.229,0.234,0.247,0.2465,0.239,0.2345,0.224,0.2235,0.231,0.228,0.2205,0.2185,0.221,0.227,0.2345,0.232,0.248,0.2545,0.243,0.242,0.2295,0.23,0.2365,0.232,0.2465,0.2595,0.251,0.249,0.2585,0.2575,0.246,0.241,0.239,0.2455,0.246,0.243,0.2465,0.2425,0.236,0.241,0.249,0.2435,0.2435,0.2445,0.2485,0.2545,0.255,0.2555,0.2485,0.243,0.259,0.2635,0.2495,0.242,0.2295,0.2335,0.242,0.2405,0.241,0.249,0.256,0.2565,0.2645,0.2615,0.266,0.2765,0.2655,0.2505,0.2455,0.249,0.243,0.239,0.242,0.248,0.249,0.2435,0.243,0.249,0.264,0.274,0.268,0.2595,0.2685,0.2695,0.26,0.26,0.256,0.2495,0.25,0.253,0.2405,0.24,0.2585,0.257,0.2475,0.2435,0.24,0.2425,0.251,0.259,0.2555,0.264,0.269,0.2705,0.28,0.271,0.275,0.2725,0.276,0.26,0.236,0.2595,0.2675,0.2675,0.269,0.2785,0.2795,0.2725,0.269,0.272,0.3005,0.3175,0.313,0.3135,0.3165,0.304,0.289,0.2895,0.2905,0.2865,0.286,0.2915,0.287,0.279,0.2805,0.2845,0.289,0.2915,0.297,0.2995,0.2965,0.31,0.327,0.319,0.3065,0.305,0.3035,0.2965,0.306,0.319,0.3155,0.3205,0.324,0.3295,0.3275,0.3275,0.33,0.3345,0.343,0.3385,0.3365,0.3465,0.361,0.361,0.3555,0.357,0.366,0.366,0.3505,0.347,0.3475,0.348,0.354,0.3615,0.358,0.348,0.355,0.3675,0.389,0.3935,0.3745,0.3725,0.383,0.3885,0.388,0.384,0.3845,0.397,0.4015,0.395,0.3935,0.3995,0.4005,0.3925,0.383,0.3815,0.3885,0.385,0.38,0.3885,0.402,0.405,0.4015,0.4,0.394,0.39,0.398,0.3865,0.364,0.363,0.3655,0.3645,0.369,0.3775,0.378,0.367,0.369,0.3755,0.3875,0.414,0.4115,0.391,0.3905,0.392,0.3805,0.366,0.362,0.372,0.3685,0.354,0.347,0.3455,0.351,0.342,0.333,0.336,0.336,0.3325,0.3235,0.3245,0.331,0.333,0.321,0.3135,0.318,0.3105,0.303,0.3005,0.3045,0.301,0.2885,0.2955,0.296,0.2875,0.2865,0.2835,0.2815,0.2855,0.2865,0.279,0.2755,0.2715,0.267,0.268,0.2535,0.25,0.2535,0.2365,0.2465,0.2605,0.25,0.2555,0.279,0.2905,0.2725,0.257,0.2655,0.273,0.2635,0.2445,0.2425,0.2445,0.24,0.245,0.244,0.241,0.244,0.2365,0.238,0.244,0.2345,0.2205,0.2195,0.233,0.231,0.2335,0.234,0.233,0.2385,0.231,0.243,0.2535,0.2445,0.242,0.2465,0.2405,0.2295,0.2145,0.211,0.208,0.2065,0.23,0.238,0.249,0.2535,0.2515,0.259,0.261,0.2605,0.253,0.2595,0.2545,0.2385,0.2405,0.26,0.265,0.255,0.2515,0.2385,0.234,0.2345,0.232,0.2295,0.2215,0.2155,0.2105,0.217,0.227,0.2315,0.2435,0.242,0.2415,0.2485,0.242,0.2455,0.253,0.2415,0.2335,0.235,0.2305,0.231,0.2305,0.229,0.2305,0.236,0.238,0.231,0.2325,0.236,0.2355,0.231,0.227,0.222,0.2115,0.224,0.228,0.225,0.2295,0.2225,0.2235,0.2275,0.2295,0.2275,0.2215,0.22,0.2215,0.2275,0.217,0.193,0.1985,0.211,0.2095,0.214,0.2175,0.211,0.207,0.2095,0.2035,0.1995,0.193,0.189,0.1945,0.2025,0.2005,0.196,0.203,1.0
0.204,0.1905,0.192,0.1915,0.202,0.217,0.217,0.2115,0.2225,0.2185,0.206,0.211,0.2115,0.217,0.21,0.199,0.208,0.2175,0.2195,0.218,0.2105,0.2065,0.2095,0.2165,0.2205,0.2145,0.214,0.212,0.212,0.2105,0.2105,0.2135,0.214,0.2145,0.2075,0.2125,0.2055,0.204,0.2195,0.2235,0.224,0.206,0.203,0.2185,0.2125,0.213,0.223,0.222,0.2115,0.1905,0.1875,0.1815,0.167,0.181,0.2,0.2215,0.2205,0.236,0.247,0.2445,0.274,0.2745,0.274,0.268,0.268,0.264,0.2585,0.2725,0.268,0.263,0.2615,0.2695,0.2625,0.2585,0.258,0.2575,0.273,0.279,0.2825,0.275,0.269,0.2825,0.2805,0.274,0.287,0.2975,0.297,0.2875,0.2855,0.288,0.281,0.2855,0.289,0.287,0.292,0.288,0.2815,0.276,0.2815,0.2815,0.2745,0.2825,0.2765,0.274,0.272,0.266,0.2625,0.2495,0.2455,0.245,0.24,0.2335,0.221,0.215,0.2155,0.2085,0.2065,0.2035,0.2015,0.21,0.212,0.208,0.21,0.213,0.2145,0.2195,0.221,0.211,0.197,0.196,0.1925,0.183,0.178,0.174,0.1685,0.174,0.183,0.199,0.1945,0.1765,0.1685,0.1625,0.1955,0.2045,0.2115,0.2235,0.2145,0.2265,0.2195,0.199,0.2015,0.2185,0.215,0.204,0.1965,0.2015,0.215,0.198,0.196,0.195,0.1895,0.206,0.2015,0.1855,0.194,0.214,0.208,0.1965,0.192,0.1785,0.1635,0.1515,0.1505,0.1545,0.138,0.1285,0.1365,0.1265,0.128,0.1285,0.1255,0.128,0.135,0.157,0.1745,0.181,0.1785,0.1865,0.196,0.207,0.2295,0.262,0.287,0.289,0.2975,0.319,0.3565,0.4095,0.461,0.509,0.5545,0.601,0.649,0.692,0.7245,0.7315,0.7345,0.732,0.708,0.6715,0.6175,0.558,0.485,0.409,0.3545,0.3,0.2515,0.2175,0.196,0.183,0.166,0.142,0.118,0.0985,0.0745,0.0585,0.0545,0.0375,0.028,0.0275,0.012,0.0,0.007,0.036,0.0695,0.09,0.113,0.14,0.1435,0.135,0.14,0.1395,0.1405,0.1495,0.1605,0.1655,0.169,0.1755,0.1735,0.18,0.1845,0.1955,0.218,0.2235,0.2165,0.212,0.2175,0.217,0.2015,0.1935,0.201,0.203,0.206,0.2115,0.216,0.2185,0.2095,0.2025,0.2085,0.208,0.2025,0.195,0.189,0.197,0.2,0.207,0.224,0.226,0.216,0.2095,0.2075,0.2165,0.221,0.213,0.217,0.229,0.227,0.227,0.228,0.2265,0.224,0.218,0.2195,0.2155,0.2045,0.2005,0.1975,0.198,0.2035,0.208,0.2195,0.228,0.2275,0.2295,0.227,0.224,0.2315,0.2395,0.237,0.238,0.2415,0.237,0.234,0.2305,0.218,0.217,0.1985,0.186,0.199,0.2035,0.199,0.169,0.1755,0.2015,0.2295,0.244,0.237,0.2455,0.243,0.2465,0.251,0.2505,0.249,0.2485,0.235,0.229,0.235,0.2195,0.2235,0.2365,0.247,0.2575,0.2425,0.2285,0.2285,0.239,0.2465,0.2395,0.243,0.2545,0.2595,0.244,0.2345,0.2345,0.23,0.2285,0.2265,0.238,0.2475,0.251,0.255,0.2575,0.2545,0.2535,0.2615,0.272,0.262,0.2435,0.25,0.2525,0.2535,0.2535,0.251,0.249,0.2475,0.2495,0.2405,0.2455,0.2505,0.253,0.2585,0.268,0.2765,0.273,0.28,0.2845,0.2735,0.266,0.271,0.2765,0.2755,0.268,0.272,0.286,0.282,0.2845,0.287,0.2715,0.256,0.2535,0.2565,0.262,0.2715,0.253,0.2705,0.2985,0.304,0.326,0.323,0.3285,0.3305,0.3245,0.3135,0.3065,0.3065,0.3045,0.313,0.317,0.329,0.3275,0.3255,0.326,0.3225,0.328,0.3295,0.337,0.338,0.339,0.346,0.342,0.3475,0.3535,0.3485,0.35,0.348,0.3455,0.345,0.343,0.351,0.354,0.3455,0.3385,0.339,0.3545,0.373,0.376,0.3605,0.3525,0.356,0.346,0.3545,0.366,0.374,0.3885,0.3665,0.3575,0.3665,0.3575,0.352,0.3575,0.3535,0.345,0.345,0.354,0.356,0.347,0.3555,0.368,0.378,0.391,0.388,0.3725,0.361,0.3515,0.3455,0.3425,0.3455,0.3455,0.3375,0.3335,0.3215,0.3255,0.332,0.3325,0.336,0.3295,0.318,0.3105,0.3135,0.309,0.2975,0.2925,0.2945,0.2975,0.2925,0.286,0.2925,0.2915,0.292,0.292,0.2795,0.279,0.2745,0.267,0.2685,0.2655,0.2665,0.267,0.261,0.2645,0.2645,0.26,0.258,0.241,0.2315,0.2335,0.2405,0.254,0.2505,0.252,0.2485,0.2335,0.23,0.231,0.2355,0.2325,0.223,0.223,0.2355,0.2475,0.2485,0.2395,0.2315,0.228,0.2165,0.2085,0.21,0.202,0.199,0.2115,0.219,0.2225,0.224,0.216,0.2115,0.209,0.214,0.2375,0.2415,0.2325,0.239,0.224,0.2105,0.2215,0.219,0.2125,0.2045,0.202,0.198,0.199,0.206,0.2035,0.2065,0.214,0.2245,0.224,0.2195,0.2235,0.2315,0.227,0.224,0.235,0.233,0.2155,0.2015,0.1995,0.1925,0.1945,0.19,0.1975,0.2145,0.21,0.2115,0.213,0.218,0.2255,0.2255,0.216,0.219,0.216,0.2005,0.2065,0.2055,0.204,0.2095,0.2065,0.2035,0.1975,0.2025,0.2065,0.2155,0.2195,0.2155,0.2185,0.2155,0.2125,0.214,0.225,0.224,0.2195,0.2165,0.213,0.2095,0.2095,0.221,0.219,0.199,0.1835,0.184,0.1865,0.18,0.188,0.193,0.1865,0.183,0.1895,0.1995,0.199,0.212,0.219,0.238,0.2635,0.252,0.229,0.215,0.21,0.2065,0.21,0.206,0.2025,0.203,0.196,0.2055,0.216,0.203,0.2005,0.2145,0.213,0.209,0.2125,0.2245,1.0
0.2135,0.221,0.2155,0.207,0.211,0.226,0.2305,0.223,0.2215,0.225,0.2325,0.2365,0.23,0.2345,0.2355,0.22,0.208,0.1985,0.197,0.2075,0.211,0.21,0.208,0.2155,0.223,0.22,0.2145,0.2155,0.235,0.244,0.2365,0.2415,0.2465,0.235,0.232,0.232,0.2265,0.218,0.2105,0.21,0.206,0.2065,0.2055,0.208,0.2255,0.241,0.235,0.232,0.232,0.232,0.239,0.25,0.266,0.2505,0.2405,0.2505,0.2335,0.233,0.2575,0.27,0.2795,0.2735,0.2615,0.2705,0.275,0.268,0.27,0.2835,0.274,0.2615,0.271,0.2705,0.279,0.282,0.278,0.279,0.2755,0.282,0.2875,0.297,0.2995,0.3,0.3055,0.299,0.297,0.298,0.2955,0.2865,0.282,0.2905,0.2945,0.291,0.298,0.304,0.3065,0.3005,0.295,0.3045,0.306,0.3085,0.3115,0.3085,0.3035,0.2955,0.291,0.295,0.2895,0.284,0.281,0.28,0.274,0.25,0.2345,0.229,0.2175,0.2165,0.2265,0.2205,0.2075,0.195,0.195,0.2075,0.213,0.2075,0.22,0.235,0.2315,0.245,0.244,0.245,0.259,0.2455,0.2355,0.231,0.2155,0.21,0.2195,0.2295,0.211,0.195,0.213,0.2295,0.242,0.2345,0.2245,0.224,0.2235,0.212,0.202,0.2285,0.2425,0.2335,0.2165,0.2245,0.2345,0.2195,0.223,0.2195,0.2105,0.2165,0.2115,0.2055,0.2035,0.2045,0.202,0.193,0.195,0.2035,0.2085,0.1975,0.1925,0.188,0.167,0.1645,0.159,0.146,0.14,0.1455,0.149,0.1605,0.1715,0.1655,0.177,0.188,0.199,0.198,0.2,0.2155,0.223,0.2435,0.2755,0.2985,0.3125,0.323,0.3295,0.355,0.3995,0.443,0.4885,0.531,0.568,0.6185,0.667,0.6875,0.72,0.759,0.761,0.749,0.725,0.6925,0.6475,0.6035,0.554,0.4805,0.4225,0.3595,0.308,0.293,0.273,0.252,0.237,0.219,0.1855,0.1695,0.1515,0.122,0.1215,0.0945,0.087,0.107,0.112,0.133,0.137,0.124,0.1295,0.148,0.167,0.179,0.1655,0.1405,0.147,0.16,0.172,0.1885,0.1905,0.1945,0.2075,0.2345,0.244,0.2495,0.2495,0.2405,0.2375,0.2275,0.238,0.2465,0.2465,0.2535,0.2495,0.2345,0.2365,0.247,0.2545,0.269,0.2605,0.2505,0.2495,0.2535,0.26,0.266,0.265,0.2465,0.2415,0.254,0.2655,0.2635,0.257,0.25,0.242,0.2505,0.267,0.268,0.264,0.261,0.2575,0.2575,0.2575,0.2535,0.251,0.2605,0.267,0.265,0.255,0.251,0.266,0.258,0.253,0.2635,0.259,0.248,0.2485,0.246,0.248,0.2525,0.2365,0.237,0.25,0.2605,0.272,0.279,0.283,0.2815,0.2645,0.2585,0.267,0.265,0.2595,0.251,0.2495,0.2495,0.2535,0.269,0.2665,0.2645,0.2725,0.2645,0.256,0.255,0.26,0.2595,0.26,0.2545,0.241,0.251,0.265,0.2645,0.261,0.261,0.2765,0.287,0.285,0.279,0.2785,0.293,0.293,0.2885,0.294,0.301,0.2955,0.283,0.281,0.286,0.284,0.265,0.261,0.261,0.256,0.2545,0.253,0.2585,0.2555,0.27,0.282,0.2825,0.3035,0.3015,0.31,0.3225,0.3075,0.31,0.3025,0.298,0.2965,0.29,0.291,0.294,0.2945,0.285,0.2805,0.2815,0.285,0.281,0.2915,0.309,0.314,0.3155,0.3185,0.3215,0.2955,0.288,0.3045,0.308,0.305,0.309,0.3265,0.3335,0.33,0.3185,0.311,0.309,0.3115,0.3205,0.3305,0.323,0.322,0.336,0.3355,0.3415,0.334,0.3365,0.355,0.35,0.338,0.338,0.3445,0.347,0.3555,0.356,0.358,0.358,0.3495,0.359,0.368,0.3655,0.3615,0.3765,0.395,0.3895,0.3825,0.3875,0.3925,0.3965,0.388,0.378,0.368,0.367,0.373,0.361,0.3575,0.37,0.379,0.368,0.3685,0.394,0.412,0.4155,0.4095,0.3955,0.3975,0.407,0.4045,0.41,0.4075,0.4025,0.411,0.423,0.4185,0.4075,0.4115,0.415,0.41,0.383,0.3795,0.4075,0.41,0.4065,0.3995,0.4055,0.4105,0.414,0.415,0.399,0.396,0.399,0.389,0.387,0.3925,0.3695,0.359,0.364,0.36,0.3555,0.3565,0.3665,0.3685,0.3675,0.363,0.3625,0.3615,0.3485,0.354,0.362,0.361,0.3555,0.3425,0.3345,0.327,0.326,0.326,0.322,0.3175,0.3035,0.3015,0.2955,0.2875,0.283,0.2815,0.277,0.276,0.2825,0.284,0.31,0.312,0.3045,0.314,0.3065,0.293,0.285,0.2825,0.2795,0.273,0.2655,0.2685,0.2795,0.288,0.2765,0.2685,0.276,0.28,0.2845,0.282,0.278,0.2715,0.266,0.267,0.257,0.258,0.26,0.2605,0.26,0.2365,0.2285,0.243,0.254,0.2575,0.258,0.267,0.26,0.2625,0.2795,0.2685,0.268,0.263,0.2535,0.258,0.2635,0.27,0.264,0.2465,0.2525,0.2655,0.2555,0.2665,0.2685,0.257,0.253,0.249,0.248,0.2375,0.2365,0.2435,0.25,0.26,0.2475,0.228,0.2325,0.248,0.2475,0.2565,0.261,0.2535,0.271,0.264,0.2455,0.252,0.2595,0.2555,0.2615,0.2765,0.27,0.255,0.2545,0.267,0.2695,0.2685,0.2665,0.255,0.2505,0.248,0.246,0.245,0.241,0.243,0.249,0.252,0.2625,0.2665,0.2645,0.2605,0.2535,0.258,0.2545,0.247,0.2565,0.2585,0.249,0.2565,0.262,0.261,0.252,0.2425,0.2375,0.23,0.23,0.209,0.2235,0.2585,0.2495,0.2565,0.2585,0.259,0.266,0.256,0.251,0.2505,0.2605,0.2695,0.2495,0.242,0.2535,0.25,0.246,0.248,0.249,0.242,0.242,0.2475,0.247,0.245,0.2335,0.227,1.0
0.2725,0.263,0.2595,0.267,0.263,0.2635,0.266,0.2575,0.255,0.2605,0.261,0.2635,0.256,0.238,0.2365,0.227,0.207,0.2235,0.2485,0.256,0.2565,0.26,0.2725,0.2735,0.2545,0.242,0.2435,0.2465,0.2535,0.2535,0.249,0.246,0.2515,0.2635,0.255,0.2465,0.249,0.251,0.263,0.268,0.267,0.267,0.263,0.2635,0.255,0.251,0.255,0.2625,0.255,0.2485,0.258,0.254,0.254,0.264,0.2715,0.276,0.2865,0.3165,0.318,0.3035,0.303,0.28,0.279,0.286,0.281,0.2825,0.291,0.291,0.2725,0.28,0.287,0.2895,0.3155,0.329,0.316,0.32,0.329,0.3315,0.336,0.327,0.338,0.339,0.33,0.3315,0.325,0.3245,0.3185,0.314,0.3175,0.3265,0.3285,0.325,0.328,0.324,0.315,0.324,0.3385,0.34,0.334,0.325,0.3405,0.3565,0.349,0.339,0.346,0.3455,0.325,0.31,0.2955,0.2915,0.2925,0.295,0.2885,0.271,0.2515,0.2445,0.2535,0.2675,0.273,0.2675,0.2655,0.266,0.2615,0.2575,0.263,0.2585,0.2515,0.248,0.244,0.242,0.2395,0.2455,0.25,0.2425,0.2405,0.246,0.249,0.2525,0.256,0.26,0.256,0.2485,0.2415,0.2445,0.241,0.229,0.2325,0.2355,0.24,0.232,0.2225,0.217,0.2135,0.2185,0.2085,0.2035,0.203,0.202,0.197,0.2065,0.243,0.2565,0.257,0.2625,0.265,0.267,0.271,0.27,0.259,0.25,0.251,0.24,0.207,0.196,0.1975,0.2005,0.19,0.182,0.191,0.19,0.1925,0.1895,0.189,0.1965,0.2225,0.2365,0.2225,0.232,0.237,0.245,0.25,0.262,0.312,0.3375,0.345,0.3625,0.39,0.441,0.5035,0.544,0.5835,0.6275,0.676,0.717,0.734,0.7545,0.7665,0.7765,0.7755,0.7555,0.719,0.671,0.618,0.5545,0.494,0.4355,0.3905,0.354,0.322,0.3065,0.2895,0.2705,0.258,0.249,0.2305,0.2,0.1715,0.147,0.1325,0.1355,0.1465,0.1475,0.1415,0.1435,0.151,0.168,0.184,0.184,0.1875,0.203,0.198,0.1905,0.198,0.1925,0.189,0.1955,0.197,0.202,0.216,0.2265,0.2295,0.258,0.2795,0.273,0.281,0.275,0.2795,0.284,0.2785,0.288,0.282,0.287,0.285,0.285,0.284,0.275,0.276,0.267,0.27,0.2675,0.2725,0.2745,0.27,0.2705,0.259,0.2585,0.258,0.2625,0.269,0.278,0.2905,0.2885,0.2875,0.3035,0.305,0.2675,0.2465,0.2585,0.275,0.288,0.2905,0.285,0.2675,0.259,0.2675,0.2795,0.2815,0.277,0.278,0.288,0.2815,0.276,0.277,0.2715,0.2795,0.273,0.2595,0.2445,0.2585,0.266,0.252,0.265,0.267,0.2675,0.263,0.2675,0.2855,0.2855,0.282,0.284,0.2955,0.2995,0.2995,0.294,0.2825,0.2805,0.277,0.278,0.278,0.2675,0.2605,0.261,0.2675,0.2695,0.2735,0.2755,0.271,0.277,0.28,0.2815,0.286,0.286,0.2825,0.275,0.2765,0.284,0.287,0.2855,0.2835,0.2855,0.284,0.279,0.2795,0.287,0.2925,0.2865,0.2845,0.297,0.3025,0.3025,0.292,0.2915,0.2855,0.2805,0.297,0.2995,0.2975,0.2895,0.289,0.293,0.296,0.304,0.306,0.3015,0.2905,0.303,0.3175,0.31,0.3115,0.3215,0.3165,0.301,0.302,0.3025,0.3065,0.313,0.3025,0.301,0.3075,0.32,0.319,0.32,0.31,0.297,0.3125,0.316,0.3205,0.3235,0.3255,0.342,0.3535,0.34,0.3275,0.331,0.3325,0.331,0.3185,0.326,0.3355,0.3245,0.3325,0.3375,0.3515,0.3665,0.36,0.3635,0.371,0.371,0.3655,0.364,0.37,0.366,0.3615,0.369,0.365,0.3625,0.374,0.381,0.384,0.4,0.3965,0.3755,0.3765,0.3745,0.383,0.378,0.3805,0.4015,0.3995,0.408,0.406,0.405,0.399,0.3915,0.408,0.4055,0.4025,0.406,0.4015,0.403,0.407,0.4005,0.4065,0.4145,0.4015,0.4125,0.4175,0.4215,0.435,0.4255,0.416,0.4055,0.402,0.3975,0.4135,0.434,0.42,0.4015,0.397,0.4025,0.403,0.4055,0.404,0.402,0.405,0.4045,0.403,0.401,0.4015,0.4125,0.404,0.3875,0.391,0.392,0.386,0.3705,0.361,0.3535,0.3455,0.3425,0.3385,0.347,0.351,0.357,0.353,0.344,0.358,0.3505,0.3425,0.349,0.3525,0.357,0.3515,0.3415,0.342,0.339,0.3275,0.3225,0.3165,0.306,0.297,0.295,0.2965,0.3075,0.3095,0.287,0.285,0.292,0.2955,0.2975,0.289,0.285,0.2755,0.286,0.2915,0.277,0.2705,0.2715,0.2725,0.266,0.279,0.28,0.264,0.2545,0.2545,0.2575,0.262,0.28,0.286,0.278,0.2775,0.2805,0.2735,0.2775,0.282,0.272,0.2625,0.25,0.2545,0.272,0.268,0.2625,0.2595,0.251,0.2525,0.2555,0.27,0.2875,0.2915,0.2955,0.288,0.285,0.269,0.246,0.2425,0.2395,0.238,0.229,0.2315,0.238,0.2585,0.2675,0.249,0.269,0.2745,0.2665,0.272,0.2525,0.2455,0.2525,0.252,0.2485,0.2435,0.275,0.29,0.2765,0.2835,0.2725,0.26,0.261,0.2615,0.27,0.277,0.2665,0.252,0.252,0.2535,0.252,0.2525,0.2515,0.2505,0.249,0.262,0.2635,0.2565,0.2635,0.2565,0.2595,0.27,0.2705,0.2725,0.2615,0.246,0.2475,0.2515,0.2555,0.265,0.27,0.2595,0.2605,0.263,0.2565,0.2585,0.2515,0.255,0.2525,0.245,0.24,0.2415,0.248,0.2475,0.251,0.249,0.2505,0.2495,0.2545,0.2665,0.26,0.2485,0.247,0.2475,0.255,0.2475,0.2315,0.23,0.233,0.245,0.246,0.234,0.2345,0.2345,1.0
0.227,0.2115,0.203,0.212,0.23,0.2285,0.233,0.235,0.2365,0.25,0.247,0.2275,0.2175,0.2265,0.219,0.209,0.2155,0.213,0.217,0.2225,0.23,0.2415,0.243,0.2515,0.2425,0.2215,0.207,0.206,0.2185,0.215,0.2125,0.2065,0.2085,0.222,0.2275,0.234,0.2265,0.2165,0.235,0.2525,0.265,0.276,0.2665,0.2515,0.2375,0.231,0.229,0.232,0.236,0.2295,0.225,0.2325,0.236,0.232,0.229,0.249,0.275,0.284,0.2775,0.2715,0.2725,0.2695,0.2785,0.262,0.253,0.2595,0.2465,0.2335,0.2385,0.255,0.2545,0.2685,0.282,0.2865,0.299,0.312,0.3075,0.297,0.3045,0.31,0.308,0.311,0.3125,0.306,0.304,0.3015,0.296,0.2925,0.283,0.2675,0.2655,0.279,0.288,0.2935,0.307,0.3095,0.3045,0.296,0.3065,0.3335,0.3295,0.3205,0.317,0.297,0.279,0.284,0.288,0.2585,0.238,0.243,0.2485,0.2435,0.225,0.226,0.238,0.252,0.2535,0.244,0.257,0.2445,0.233,0.237,0.2355,0.2405,0.2425,0.24,0.23,0.216,0.2155,0.2235,0.2215,0.218,0.2045,0.198,0.204,0.2005,0.2095,0.213,0.2015,0.1995,0.205,0.223,0.2355,0.2325,0.228,0.2195,0.2165,0.2135,0.201,0.2,0.1945,0.198,0.1965,0.179,0.1935,0.2025,0.2035,0.2095,0.2145,0.218,0.208,0.193,0.1925,0.194,0.1885,0.1815,0.1735,0.1765,0.176,0.1775,0.176,0.1675,0.1645,0.1525,0.1385,0.1305,0.14,0.1635,0.1755,0.1685,0.1625,0.1685,0.157,0.153,0.1685,0.175,0.184,0.1875,0.1945,0.1945,0.2075,0.2335,0.252,0.279,0.2855,0.292,0.329,0.3865,0.45,0.498,0.5395,0.5785,0.6265,0.675,0.6985,0.7195,0.726,0.745,0.768,0.7275,0.6755,0.629,0.56,0.5,0.44,0.3735,0.328,0.299,0.269,0.2405,0.2395,0.229,0.1905,0.17,0.1555,0.126,0.095,0.0775,0.0665,0.0755,0.0865,0.062,0.05,0.065,0.089,0.1025,0.1085,0.121,0.1215,0.114,0.131,0.1495,0.1475,0.139,0.152,0.1745,0.1735,0.1845,0.1945,0.1915,0.1975,0.197,0.194,0.2025,0.2015,0.1885,0.1965,0.2135,0.2175,0.2255,0.221,0.2105,0.2105,0.2225,0.234,0.2215,0.2205,0.2245,0.2125,0.2145,0.2155,0.213,0.2135,0.207,0.21,0.2115,0.2175,0.222,0.206,0.211,0.2305,0.226,0.227,0.2345,0.2275,0.225,0.227,0.2205,0.2065,0.2025,0.215,0.219,0.221,0.226,0.222,0.231,0.229,0.2245,0.2265,0.2265,0.228,0.2215,0.2225,0.223,0.23,0.247,0.2345,0.231,0.242,0.218,0.1985,0.212,0.2295,0.2165,0.214,0.223,0.2305,0.24,0.2475,0.2525,0.2475,0.24,0.227,0.2305,0.233,0.238,0.239,0.2345,0.235,0.2295,0.2305,0.223,0.2235,0.2285,0.238,0.2515,0.242,0.2325,0.232,0.2435,0.2625,0.263,0.251,0.2435,0.243,0.25,0.2585,0.2435,0.2435,0.2495,0.239,0.239,0.2385,0.2355,0.2345,0.2455,0.252,0.249,0.2465,0.2495,0.258,0.2665,0.261,0.2605,0.2655,0.263,0.254,0.2395,0.2395,0.2435,0.2445,0.2515,0.2635,0.2505,0.2375,0.242,0.2445,0.253,0.2515,0.247,0.2505,0.2525,0.2525,0.2585,0.265,0.281,0.2905,0.2835,0.2755,0.276,0.278,0.286,0.308,0.306,0.309,0.314,0.307,0.3,0.289,0.2745,0.2775,0.2895,0.2905,0.301,0.3065,0.313,0.2975,0.2885,0.312,0.3075,0.3035,0.315,0.315,0.314,0.317,0.3175,0.319,0.327,0.33,0.321,0.324,0.3385,0.343,0.347,0.3455,0.334,0.3325,0.3425,0.336,0.3295,0.3285,0.344,0.356,0.3495,0.351,0.3475,0.352,0.357,0.361,0.3745,0.3775,0.366,0.367,0.368,0.366,0.3635,0.348,0.3435,0.35,0.354,0.3535,0.3615,0.3705,0.367,0.3595,0.355,0.369,0.3815,0.382,0.3825,0.3805,0.374,0.369,0.3825,0.3765,0.354,0.349,0.352,0.345,0.347,0.3465,0.3435,0.377,0.3765,0.3595,0.365,0.3595,0.3665,0.3865,0.375,0.352,0.3725,0.379,0.362,0.347,0.3275,0.3295,0.335,0.326,0.3115,0.309,0.3275,0.3365,0.327,0.3065,0.288,0.298,0.2995,0.292,0.3,0.299,0.2955,0.288,0.2725,0.268,0.2685,0.268,0.265,0.26,0.2545,0.246,0.2355,0.2415,0.2565,0.25,0.2455,0.2575,0.2525,0.2515,0.265,0.258,0.2435,0.243,0.256,0.259,0.249,0.241,0.246,0.241,0.219,0.2285,0.237,0.2395,0.2365,0.228,0.233,0.233,0.2385,0.247,0.2385,0.232,0.2365,0.232,0.2215,0.217,0.2165,0.2135,0.201,0.201,0.2045,0.1955,0.1915,0.1785,0.19,0.221,0.229,0.2175,0.224,0.2585,0.261,0.265,0.2695,0.2465,0.214,0.2065,0.222,0.221,0.21,0.212,0.2025,0.2015,0.2125,0.1955,0.1995,0.218,0.221,0.224,0.224,0.215,0.208,0.2025,0.201,0.203,0.1965,0.199,0.2035,0.191,0.1995,0.2135,0.2165,0.2225,0.2155,0.203,0.202,0.2085,0.2125,0.2185,0.225,0.2295,0.2245,0.22,0.2155,0.213,0.2145,0.226,0.2275,0.203,0.1965,0.198,0.1985,0.2015,0.2035,0.204,0.1995,0.2055,0.2065,0.2045,0.2095,0.203,0.2,0.2005,0.199,0.209,0.209,0.1985,0.19,0.185,0.189,0.1845,0.182,0.1835,0.178,0.182,0.1885,0.1935,0.196,0.1915,0.1915,0.192,0.185,0.184,0.1785,0.1715,0.181,0.191,0.18,0.152,0.15,0.1725,0.1805,0.1855,1.0
0.1765,0.188,0.1795,0.174,0.172,0.1585,0.152,0.162,0.1705,0.17,0.1705,0.1775,0.1815,0.1805,0.181,0.174,0.1805,0.187,0.1855,0.1765,0.171,0.1855,0.18,0.168,0.1685,0.1805,0.187,0.1745,0.1615,0.163,0.1745,0.1855,0.1885,0.182,0.182,0.1785,0.18,0.189,0.1925,0.192,0.1835,0.1855,0.2025,0.222,0.2085,0.189,0.194,0.189,0.1985,0.2,0.1975,0.1915,0.1865,0.196,0.1975,0.203,0.206,0.2105,0.2165,0.2175,0.2055,0.1975,0.195,0.1905,0.203,0.206,0.2105,0.2225,0.225,0.224,0.232,0.2355,0.232,0.234,0.2405,0.2505,0.253,0.247,0.247,0.2515,0.252,0.2535,0.248,0.2515,0.2635,0.2515,0.2355,0.227,0.2355,0.255,0.251,0.2585,0.2635,0.265,0.2735,0.271,0.2865,0.286,0.267,0.2545,0.252,0.245,0.2315,0.227,0.229,0.2255,0.2085,0.2105,0.216,0.201,0.1785,0.1755,0.179,0.171,0.1635,0.165,0.173,0.184,0.1955,0.1925,0.212,0.2255,0.2135,0.212,0.2125,0.206,0.1935,0.199,0.192,0.1755,0.181,0.1755,0.1625,0.156,0.162,0.1715,0.171,0.1735,0.1675,0.1675,0.1705,0.169,0.1665,0.159,0.1635,0.1565,0.1515,0.1595,0.1585,0.154,0.1475,0.154,0.1605,0.1605,0.1605,0.1595,0.1805,0.182,0.1725,0.184,0.172,0.167,0.1655,0.158,0.1625,0.1625,0.153,0.1515,0.1565,0.1465,0.139,0.1255,0.1175,0.117,0.1045,0.107,0.1065,0.098,0.106,0.11,0.101,0.094,0.0895,0.098,0.119,0.128,0.127,0.124,0.1215,0.1345,0.1525,0.1685,0.222,0.2715,0.2935,0.298,0.317,0.3825,0.434,0.481,0.52,0.554,0.602,0.6365,0.6575,0.6665,0.6775,0.687,0.6705,0.6345,0.596,0.5495,0.4905,0.423,0.367,0.324,0.28,0.2455,0.206,0.1725,0.1555,0.1375,0.1205,0.1115,0.0965,0.064,0.0475,0.032,0.023,0.0225,0.014,0.0255,0.026,0.035,0.06,0.073,0.084,0.0935,0.1085,0.0985,0.1015,0.108,0.1,0.108,0.111,0.1275,0.1325,0.136,0.1525,0.1575,0.1605,0.166,0.16,0.1575,0.1725,0.1815,0.1785,0.1745,0.182,0.1805,0.178,0.174,0.1745,0.175,0.172,0.1775,0.179,0.1855,0.1805,0.171,0.165,0.1705,0.1805,0.186,0.183,0.172,0.182,0.197,0.197,0.186,0.1815,0.1905,0.2025,0.1855,0.1695,0.1695,0.169,0.177,0.18,0.181,0.172,0.1885,0.2055,0.2025,0.2085,0.197,0.2,0.2045,0.203,0.204,0.1905,0.19,0.1895,0.19,0.195,0.1935,0.191,0.1895,0.187,0.1805,0.1955,0.2005,0.1885,0.186,0.188,0.205,0.1935,0.1725,0.1935,0.218,0.22,0.2135,0.214,0.216,0.1915,0.1785,0.2,0.2095,0.202,0.194,0.196,0.207,0.2145,0.216,0.215,0.205,0.2,0.205,0.2025,0.199,0.2035,0.2055,0.1925,0.1905,0.2005,0.2055,0.2005,0.1925,0.1955,0.192,0.1995,0.214,0.21,0.204,0.2015,0.21,0.216,0.2075,0.2025,0.2055,0.2105,0.209,0.2035,0.223,0.236,0.219,0.223,0.2245,0.2105,0.212,0.209,0.203,0.202,0.2125,0.2175,0.2165,0.2345,0.238,0.2375,0.238,0.239,0.2375,0.229,0.2385,0.2415,0.231,0.2215,0.227,0.232,0.2205,0.215,0.218,0.2315,0.2435,0.2345,0.236,0.246,0.243,0.2325,0.2245,0.252,0.2775,0.2715,0.265,0.2595,0.2765,0.289,0.269,0.275,0.2855,0.2805,0.277,0.2725,0.285,0.28,0.2685,0.2775,0.295,0.295,0.28,0.282,0.2905,0.2945,0.297,0.297,0.2975,0.2995,0.303,0.3085,0.3085,0.3085,0.311,0.318,0.3215,0.3235,0.3255,0.323,0.334,0.33,0.3275,0.337,0.3275,0.325,0.3255,0.33,0.3245,0.3205,0.3265,0.3245,0.323,0.3205,0.3375,0.3435,0.3295,0.3345,0.3365,0.337,0.338,0.3395,0.337,0.331,0.323,0.321,0.338,0.3335,0.3295,0.3355,0.3265,0.3305,0.333,0.323,0.317,0.3135,0.3205,0.3285,0.325,0.326,0.3265,0.3195,0.3155,0.3145,0.312,0.3005,0.301,0.299,0.2875,0.2755,0.253,0.246,0.244,0.238,0.2315,0.241,0.266,0.28,0.2715,0.2855,0.301,0.2805,0.2735,0.27,0.2695,0.2645,0.252,0.244,0.2445,0.2385,0.2425,0.253,0.242,0.227,0.2145,0.2195,0.2145,0.221,0.2415,0.2385,0.231,0.221,0.2165,0.21,0.2085,0.2225,0.2175,0.2045,0.2015,0.198,0.2055,0.2085,0.204,0.203,0.1975,0.1965,0.1995,0.2015,0.196,0.201,0.217,0.2105,0.198,0.1965,0.1975,0.196,0.193,0.1875,0.1825,0.18,0.183,0.183,0.1935,0.2085,0.2,0.202,0.193,0.1875,0.1945,0.189,0.192,0.194,0.195,0.192,0.2025,0.2095,0.1865,0.178,0.181,0.181,0.179,0.1825,0.1845,0.1795,0.1875,0.185,0.1895,0.183,0.17,0.169,0.1485,0.142,0.149,0.162,0.171,0.1965,0.2225,0.2265,0.2185,0.189,0.183,0.195,0.204,0.201,0.1935,0.199,0.1875,0.1815,0.1985,0.199,0.1895,0.1915,0.1895,0.1875,0.184,0.179,0.1775,0.171,0.172,0.1715,0.1695,0.173,0.175,0.166,0.167,0.1875,0.182,0.176,0.1835,0.1885,0.183,0.1775,0.1855,0.189,0.186,0.185,0.194,0.1805,0.1675,0.1755,0.1865,0.193,0.1825,0.168,0.171,0.1695,0.166,0.1815,0.1895,0.1865,0.1785,0.174,0.1805,0.193,0.1955,0.185,0.171,0.1665,0.1695,0.168,0.168,0.167,0.1655,0.158,1.0
0.2015,0.2015,0.196,0.1875,0.192,0.186,0.181,0.187,0.184,0.1685,0.1545,0.1625,0.165,0.16,0.1645,0.1575,0.156,0.161,0.173,0.1895,0.198,0.1975,0.183,0.178,0.175,0.1735,0.1745,0.1605,0.156,0.16,0.1685,0.185,0.203,0.2095,0.1855,0.181,0.1915,0.1895,0.1835,0.186,0.201,0.199,0.1915,0.191,0.192,0.19,0.1875,0.199,0.199,0.2,0.205,0.195,0.194,0.2035,0.206,0.205,0.2195,0.224,0.208,0.2065,0.2175,0.224,0.2305,0.212,0.191,0.2025,0.2015,0.191,0.1855,0.187,0.1905,0.1975,0.2055,0.2155,0.2395,0.2495,0.2495,0.2475,0.252,0.2675,0.2865,0.2925,0.28,0.2725,0.2735,0.283,0.284,0.2875,0.2755,0.2595,0.2575,0.25,0.247,0.2515,0.255,0.25,0.25,0.2515,0.2545,0.261,0.27,0.2685,0.2575,0.2555,0.2515,0.2395,0.2195,0.2155,0.2265,0.226,0.213,0.1935,0.183,0.181,0.1765,0.1775,0.182,0.184,0.1905,0.1915,0.1955,0.198,0.1985,0.206,0.198,0.1875,0.1835,0.1795,0.1825,0.1795,0.1685,0.16,0.1585,0.168,0.1625,0.1535,0.146,0.1405,0.1475,0.164,0.178,0.1675,0.1735,0.1855,0.177,0.1785,0.1865,0.1835,0.1785,0.1805,0.173,0.17,0.1445,0.128,0.1485,0.1445,0.1455,0.1545,0.1615,0.17,0.1685,0.1655,0.161,0.163,0.1625,0.1625,0.164,0.1585,0.1515,0.139,0.1315,0.123,0.115,0.118,0.1165,0.1095,0.1025,0.1005,0.1065,0.114,0.1105,0.1195,0.1405,0.146,0.1505,0.1495,0.1395,0.14,0.1465,0.1555,0.185,0.216,0.241,0.265,0.27,0.281,0.3105,0.365,0.4205,0.462,0.5105,0.5505,0.5835,0.611,0.6525,0.679,0.6895,0.701,0.6715,0.6115,0.574,0.5575,0.501,0.4425,0.387,0.3395,0.307,0.2755,0.257,0.237,0.2125,0.1965,0.18,0.1515,0.143,0.1165,0.079,0.07,0.058,0.0555,0.0705,0.0745,0.0675,0.07,0.0785,0.091,0.1005,0.12,0.133,0.1265,0.132,0.1325,0.1355,0.1545,0.165,0.157,0.1545,0.152,0.1395,0.1505,0.1655,0.172,0.17,0.1665,0.1765,0.1835,0.185,0.183,0.1805,0.184,0.185,0.192,0.204,0.202,0.1935,0.193,0.1995,0.2,0.1885,0.186,0.1875,0.1875,0.187,0.179,0.1805,0.188,0.1885,0.1835,0.1835,0.1815,0.1855,0.183,0.1785,0.187,0.186,0.175,0.158,0.167,0.17,0.1545,0.1665,0.1685,0.169,0.1755,0.1685,0.17,0.1765,0.181,0.19,0.2075,0.2155,0.214,0.215,0.2195,0.221,0.214,0.2085,0.206,0.2015,0.1995,0.2005,0.197,0.199,0.2015,0.2015,0.198,0.19,0.1835,0.186,0.188,0.189,0.2005,0.1975,0.1945,0.1985,0.1975,0.2085,0.2225,0.2165,0.1965,0.199,0.1975,0.19,0.2035,0.2145,0.209,0.2045,0.203,0.203,0.2105,0.216,0.216,0.217,0.2155,0.212,0.2145,0.2175,0.22,0.219,0.216,0.2125,0.2125,0.2125,0.2165,0.2185,0.2245,0.2215,0.2185,0.2265,0.206,0.209,0.2195,0.2085,0.2145,0.212,0.2055,0.212,0.212,0.211,0.2145,0.2115,0.208,0.214,0.2195,0.2265,0.2305,0.2305,0.2375,0.2365,0.2405,0.242,0.236,0.2385,0.2335,0.2235,0.2255,0.234,0.247,0.259,0.245,0.234,0.24,0.239,0.2395,0.245,0.2475,0.246,0.243,0.2445,0.262,0.2795,0.2835,0.299,0.298,0.2935,0.286,0.2615,0.2625,0.2595,0.259,0.274,0.2705,0.271,0.281,0.2875,0.285,0.2875,0.2945,0.282,0.289,0.3065,0.316,0.3255,0.3145,0.3065,0.3135,0.3155,0.311,0.3195,0.3105,0.303,0.322,0.3295,0.3345,0.325,0.3135,0.3155,0.322,0.326,0.334,0.343,0.3415,0.3455,0.3445,0.3375,0.3355,0.3385,0.3455,0.338,0.339,0.3485,0.349,0.344,0.3385,0.345,0.331,0.324,0.3275,0.3305,0.334,0.32,0.329,0.3355,0.3305,0.329,0.3325,0.3325,0.33,0.336,0.328,0.33,0.335,0.327,0.32,0.3195,0.3205,0.3225,0.3395,0.342,0.329,0.3155,0.3065,0.3205,0.3205,0.313,0.3205,0.319,0.3155,0.3115,0.3035,0.2955,0.288,0.2755,0.275,0.268,0.262,0.268,0.259,0.2575,0.253,0.2435,0.244,0.2505,0.2595,0.271,0.279,0.2615,0.249,0.251,0.2425,0.237,0.234,0.2245,0.2225,0.227,0.2215,0.2175,0.2175,0.218,0.2265,0.245,0.245,0.239,0.2485,0.2385,0.2245,0.219,0.209,0.205,0.211,0.214,0.2185,0.2275,0.2235,0.2115,0.2035,0.2025,0.2045,0.2075,0.223,0.2175,0.1925,0.1945,0.205,0.211,0.2145,0.217,0.2115,0.209,0.219,0.2205,0.212,0.194,0.1905,0.202,0.2125,0.2245,0.214,0.208,0.2125,0.2045,0.2005,0.201,0.2065,0.2115,0.206,0.199,0.191,0.1855,0.186,0.188,0.1905,0.181,0.18,0.198,0.195,0.179,0.1845,0.201,0.202,0.2005,0.206,0.206,0.211,0.206,0.206,0.2085,0.207,0.2125,0.216,0.219,0.208,0.198,0.1935,0.193,0.2005,0.2,0.196,0.1975,0.1955,0.2045,0.2145,0.2095,0.2085,0.2055,0.2055,0.207,0.2005,0.196,0.1915,0.1835,0.176,0.1705,0.172,0.176,0.1825,0.194,0.1995,0.208,0.217,0.2155,0.225,0.2275,0.218,0.2125,0.2015,0.2,0.1855,0.173,0.185,0.2,0.198,0.1895,0.1965,0.1985,0.1975,0.188,0.19,0.195,0.193,0.1955,0.188,0.182,0.1865,0.197,0.197,0.192,0.1985,0.198,0.185,0.176,1.0
0.2025,0.2055,0.1975,0.198,0.206,0.2085,0.2135,0.209,0.208,0.2215,0.222,0.219,0.219,0.221,0.227,0.2245,0.2155,0.214,0.2155,0.2055,0.2,0.199,0.2,0.1995,0.192,0.196,0.2015,0.1975,0.2,0.21,0.2075,0.2,0.197,0.212,0.226,0.2275,0.2315,0.218,0.2135,0.2245,0.2255,0.217,0.2185,0.2175,0.214,0.214,0.2095,0.209,0.22,0.2285,0.227,0.2335,0.237,0.2405,0.24,0.2375,0.236,0.233,0.2465,0.254,0.2465,0.239,0.235,0.237,0.2385,0.2385,0.2355,0.2305,0.2345,0.2235,0.2265,0.264,0.283,0.2825,0.278,0.272,0.283,0.2935,0.2925,0.297,0.287,0.2845,0.2955,0.2975,0.2825,0.2675,0.2645,0.2645,0.2695,0.274,0.29,0.301,0.299,0.2895,0.2835,0.2805,0.2955,0.2965,0.284,0.2875,0.287,0.2935,0.291,0.2915,0.2805,0.264,0.2625,0.2535,0.245,0.2485,0.241,0.227,0.228,0.229,0.232,0.2175,0.2095,0.2095,0.2155,0.22,0.2145,0.221,0.214,0.205,0.198,0.1995,0.209,0.212,0.2115,0.2005,0.2015,0.206,0.206,0.2035,0.1915,0.1875,0.1985,0.2085,0.204,0.2095,0.217,0.204,0.194,0.183,0.1855,0.192,0.1855,0.1875,0.1855,0.1865,0.1795,0.179,0.2,0.2165,0.213,0.1965,0.196,0.205,0.2045,0.198,0.194,0.189,0.1795,0.1785,0.1765,0.1715,0.1695,0.1555,0.1505,0.1415,0.1445,0.1585,0.142,0.133,0.135,0.125,0.123,0.1205,0.121,0.131,0.135,0.145,0.152,0.16,0.166,0.1785,0.178,0.19,0.217,0.222,0.2555,0.3005,0.322,0.3305,0.352,0.3805,0.4165,0.4695,0.5145,0.548,0.597,0.6385,0.659,0.691,0.71,0.7205,0.7225,0.718,0.701,0.6605,0.6225,0.564,0.4935,0.432,0.3675,0.315,0.281,0.257,0.2455,0.2345,0.225,0.19,0.1545,0.1495,0.1315,0.108,0.089,0.079,0.084,0.089,0.0945,0.094,0.1,0.1285,0.1485,0.159,0.1715,0.1615,0.153,0.151,0.1465,0.1485,0.1565,0.1725,0.167,0.161,0.169,0.183,0.19,0.1935,0.2085,0.2165,0.2095,0.201,0.216,0.2175,0.207,0.209,0.2015,0.222,0.243,0.2265,0.2175,0.2175,0.215,0.208,0.206,0.214,0.21,0.211,0.22,0.2185,0.2155,0.2125,0.2155,0.2255,0.235,0.235,0.2225,0.221,0.223,0.2155,0.2065,0.2065,0.2165,0.2125,0.215,0.2235,0.2095,0.198,0.2045,0.222,0.224,0.2375,0.232,0.2095,0.235,0.229,0.2195,0.2225,0.2165,0.229,0.2365,0.237,0.224,0.2225,0.2255,0.229,0.235,0.2295,0.219,0.216,0.219,0.2225,0.2255,0.2335,0.2465,0.245,0.2385,0.248,0.2455,0.232,0.228,0.2175,0.2225,0.23,0.2295,0.2295,0.2205,0.2205,0.2305,0.2345,0.2335,0.2375,0.2435,0.242,0.246,0.252,0.244,0.2365,0.2475,0.249,0.2375,0.2365,0.2355,0.233,0.226,0.221,0.2305,0.223,0.1965,0.191,0.209,0.223,0.231,0.2465,0.251,0.2565,0.266,0.244,0.228,0.24,0.2515,0.253,0.2505,0.2545,0.2475,0.2375,0.252,0.2615,0.25,0.2515,0.26,0.2695,0.2775,0.2645,0.265,0.268,0.256,0.2595,0.262,0.2615,0.266,0.256,0.2545,0.2525,0.243,0.2425,0.25,0.2565,0.256,0.2615,0.2695,0.281,0.2835,0.277,0.282,0.2925,0.3015,0.3005,0.296,0.294,0.288,0.2775,0.2705,0.271,0.288,0.3075,0.302,0.3055,0.3145,0.3205,0.3245,0.319,0.313,0.3065,0.314,0.315,0.322,0.34,0.341,0.3375,0.337,0.3355,0.332,0.3305,0.331,0.333,0.339,0.3465,0.3405,0.341,0.3435,0.3425,0.3585,0.3555,0.351,0.353,0.347,0.3665,0.371,0.368,0.3575,0.329,0.341,0.3495,0.35,0.358,0.376,0.4045,0.4045,0.3925,0.3825,0.375,0.3765,0.3765,0.3725,0.38,0.383,0.3775,0.3815,0.378,0.379,0.3785,0.3665,0.3635,0.3615,0.3665,0.3635,0.3625,0.367,0.36,0.36,0.3615,0.3585,0.3575,0.3555,0.349,0.342,0.3355,0.3345,0.3265,0.316,0.3215,0.318,0.329,0.3335,0.3175,0.317,0.314,0.3125,0.314,0.3135,0.313,0.316,0.305,0.29,0.298,0.2995,0.291,0.2875,0.2835,0.276,0.2675,0.2655,0.2715,0.276,0.2715,0.2735,0.261,0.247,0.2555,0.247,0.2415,0.2385,0.241,0.2595,0.267,0.2575,0.2465,0.252,0.2495,0.2255,0.2215,0.2385,0.251,0.2455,0.233,0.2315,0.2325,0.2235,0.211,0.225,0.2375,0.246,0.2435,0.241,0.2385,0.227,0.228,0.225,0.2225,0.215,0.2125,0.2235,0.228,0.224,0.219,0.2145,0.2195,0.2215,0.2155,0.2175,0.2155,0.211,0.2115,0.2205,0.2305,0.2355,0.2285,0.2225,0.22,0.216,0.222,0.2145,0.203,0.2055,0.2175,0.227,0.2135,0.2045,0.206,0.2015,0.209,0.22,0.2195,0.2285,0.2305,0.224,0.242,0.2465,0.2255,0.222,0.222,0.2125,0.2105,0.215,0.221,0.211,0.204,0.214,0.2135,0.2115,0.2105,0.2115,0.2125,0.215,0.221,0.225,0.2315,0.2255,0.2175,0.2145,0.2175,0.2185,0.209,0.2035,0.2005,0.217,0.23,0.2125,0.1935,0.201,0.2075,0.194,0.1995,0.208,0.2185,0.2305,0.226,0.2385,0.2525,0.2495,0.2365,0.219,0.2095,0.192,0.1865,0.189,0.188,0.199,0.191,0.189,0.2015,0.209,0.207,0.1985,0.2135,0.2255,0.2225,0.221,0.2075,0.1905,0.1945,0.2025,0.205,0.212,0.2035,0.1965,0.2025,0.2055,1.0
