,0,1,2,3,4,5,6,7,8,9,10,11,12,13,14,15,16,17,18,19,20,21,22,23,24,25,26,27,28,29,30,31,32,33,34,35,36,37,38,39,40,41,42,43,44,45,46,47,48,49,50,51,52,53,54,55,56,57,58,59,60,61,62,63,64,65,66,67,68,69,70,71,72,73,74,75,76,77,78,79,80,81,82,83,84,85,86,87,88,89,90,91,92,93,94,95,96,97,98,99,100,101,102,103,104,105,106,107,108,109,110,111,112,113,114,115,116,117,118,119,120,121,122,123,124,125,126,127,128,129,130,131,132,133,134,135,136,137,138,139,140,141,142,143,144,145,146,147,148,149,150,151,152,153,154,155,156,157,158,159,160,161,162,163,164,165,166,167,168,169,170,171,172,173,174,175,176,177,178,179,180,181,182,183,184,185,186,187,188,189,190,191,192,193,194,195,196,197,198,199,200,201,202,203,204,205,206,207,208,209,210,211,212,213,214,215,216,217,218,219,220,221,222,223,224,225,226,227,228,229,230,231,232,233,234,235,236,237,238,239,240,241,242,243,244,245,246,247,248,249,250,251,252,253,254,255,256,257,258,259,260,261,262,263,264,265,266,267,268,269,270,271,272,273,274,275,276,277,278,279,280,281,282,283,284,285,286,287,288,289,290,291,292,293,294,295,296,297,298,299,300,301
0,-0.1034521487680714,-0.0978801103807405,-0.08878659449832138,-0.08158269625078506,-0.07672349411481093,-0.07595309396157089,-0.07890410244348031,-0.0825004641871571,-0.0886385635192653,-0.09875196402542775,-0.10916996059942759,-0.11606557252231171,-0.11626684817306039,-0.10461442293686292,-0.08652152115216649,-0.07153508911938534,-0.06043190350348968,-0.05732774292225708,-0.05785005142053718,-0.05129374158778767,-0.03863050207675513,-0.01836383227667389,0.004342011895374773,0.017108607253528342,0.018285342936878772,0.0037670812590117155,-0.020572068929036604,-0.040511483119623846,-0.05505444517242257,-0.059620640665097244,-0.055365610374424994,-0.050624585229061866,-0.040615665890015196,-0.021848927382962027,0.0013431370375274157,0.026636979523065284,0.05014321657760004,0.06507816522659061,0.07205313885049153,0.07301596649917594,0.06302127912554696,0.03844859457775696,0.007109600413243292,-0.02062181529934872,-0.03852535918554002,-0.03572434480860073,-0.023281455997667327,-0.021954298393542106,-0.03202713315530129,-0.06047127221568882,-0.09754637439360157,-0.11964857120838353,-0.1272599360659897,-0.11574791883843331,-0.09271703598502608,-0.08006127596368547,-0.0778859861446959,-0.09062663550591696,-0.11259745839304844,-0.12537132667953116,-0.13060240890795688,-0.12657694775503261,-0.1144106546031337,-0.10435060030683745,-0.09280681270721658,-0.07693397329179932,-0.0614575080864099,-0.04832536660622714,-0.041707494770287026,-0.048355534045970025,-0.06329720832204484,-0.07854541040249573,-0.09442090732937268,-0.10782728369471321,-0.12007254254218584,-0.13670628671321103,-0.15461877830734444,-0.17149015365762407,-0.1829598231607194,-0.18023338772040812,-0.1590469934945664,-0.11381393576432192,-0.04070437478516823,0.06164642168120882,0.19998023176453394,0.3808781075646906,0.587680644997237,0.7959129234746293,0.9924580010532539,1.1546980421890922,1.286065346115844,1.402996577725451,1.4896452358438403,1.5361963933844485,1.5413548101208159,1.4956887542346502,1.4006152340058027,1.2613512167991803,1.089153443548538,0.9044305648271198,0.7250095694457754,0.5747148776859687,0.4493828994786997,0.33318788253110343,0.2402382044035316,0.17734849332154176,0.13558949527626793,0.109495170890987,0.08537485056997146,0.041423437078586645,-0.00887865947077935,-0.04345066913905296,-0.06985751222803825,-0.08702646919308553,-0.09579162403988031,-0.1073693677027167,-0.11563160765576473,-0.11377946037240382,-0.10982626083124587,-0.11009256194802228,-0.11691878164331254,-0.1365981087029721,-0.16276073370901145,-0.18343644872199819,-0.19780838360311603,-0.20109936603984238,-0.195960085042624,-0.19173662748061124,-0.18526557032929541,-0.1753164863497797,-0.16178409058525875,-0.14019020966894913,-0.11187557737123914,-0.07864009284483117,-0.04586664218123654,-0.0233793903397765,-0.01702667781832044,-0.034895994957045165,-0.06739065350080144,-0.09609642214683317,-0.11846315500046925,-0.12577466845670973,-0.12324719018100364,-0.12699272312724935,-0.13155632385738733,-0.1349954993100192,-0.14033409057060556,-0.1444409433518772,-0.1523841340379924,-0.17131006618930691,-0.19105092474081917,-0.19850032488969419,-0.18963135379779122,-0.1549906123157057,-0.11151816477038766,-0.08954217132367201,-0.09563770413510818,-0.14543010886551405,-0.21726033556704857,-0.2659388881031832,-0.28728472378013803,-0.26459654488587603,-0.21315536852224562,-0.17596996985287547,-0.14723158617576973,-0.13072866635328026,-0.12473473481112107,-0.10670437688532608,-0.08640953367841428,-0.07268644900046098,-0.06275101445899682,-0.06317435845021363,-0.07354457302394445,-0.09063240585683055,-0.11245679660572944,-0.13295502458163727,-0.14752379171807423,-0.15047302181143235,-0.14407805454359437,-0.13459474979434016,-0.11926171710079927,-0.09754457705048576,-0.07528001719396853,-0.05790729131509978,-0.052796882667960954,-0.07051299686799176,-0.09891783730837507,-0.11802548712352641,-0.12495773471799566,-0.10951784281327628,-0.08082684691144086,-0.06125183493210161,-0.04778736380819246,-0.042917562992096404,-0.04712354992456123,-0.050713522110136446,-0.060053343207407184,-0.0814629326520591,-0.10482216844803109,-0.1201493201921206,-0.12081292362237893,-0.09456393954642994,-0.055219360095809016,-0.02719502956315224,-0.012821399045874473,-0.022635611603649332,-0.04654760565853568,-0.05876325440043837,-0.06219243987962916,-0.05369831244197488,-0.03733394892686255,-0.03090317768730412,-0.03098127854813258,-0.03626384886711441,-0.046177920840975155,-0.051567533308487463,-0.05380478198795175,-0.05410938111316303,-0.04988422463099865,-0.04176146387406261,-0.027028139932978288,-0.0018371777283567741,0.027840570567552472,0.05380497081155394,0.07277121407069007,0.07803721706348317,0.07523666135986912,0.0762513916049396,0.08018862731437884,0.08983981029212051,0.10114562991666334,0.10277217259337273,0.0958041531739716,0.07937230303454514,0.058608915506847145,0.04614399575820389,0.04439407277610618,0.05828589698678524,0.08194164025641519,0.10098878556055332,0.11506908244899149,0.12007222853690673,0.11823461801068468,0.11950855582027578,0.1200301618988653,0.1174710411422986,0.11216196208482161,0.0999367842332523,0.0817397058371804,0.059298718795268046,0.03375441801553423,0.008717708736529094,-0.013509358185974568,-0.030104226882787116,-0.040987714803418285,-0.04780228677521599,-0.04825200380186458,-0.04071791348741175,-0.028911393306506085,-0.017376391488295683,-0.00968032050709015,-0.011704312268507214,-0.0196311843711272,-0.02583980430021287,-0.031892676694639605,-0.03665216110890476,-0.03870816439877484,-0.03955658382689169,-0.03503655362836353,-0.02023115848823131,-0.0023997850648221136,0.00871497431708561,0.009751544485076445,-0.006719182210622461,-0.03157610257357113,-0.04721866130584339,-0.0523310110704939,-0.0403457576254223,-0.019000307874932336,-0.007574540205213984,-0.005323339522679017,-0.015980011460950107,-0.03580201638962697,-0.05043456194445374,-0.06250732234804128,-0.07238635415872025,-0.07953399509988475,-0.08990195241264365,-0.10062654115436073,-0.10850744936954289,-0.11343408868769313,-0.11242594052384217,-0.10425966324189472,-0.08822401753184474,-0.06876238240687499,-0.053697555396121775,-0.04671667467794945,-0.05388879965768937,-0.06969720329556088,-0.08252285445357009,-0.0927274064151713,-0.09704156067009793
1,-0.14123170127686588,-0.12707186574262547,-0.10535216694213399,-0.09120681836179079,-0.08611021259398796,-0.09556366070930962,-0.11240019339758757,-0.11925691971514223,-0.1162786042981999,-0.0995437846960766,-0.07461389324961787,-0.057573702982928084,-0.04762958367753805,-0.0470838339380737,-0.05356487000692459,-0.056140021246253384,-0.056931462921547785,-0.056548351433838,-0.0564838857061479,-0.06402214161502787,-0.07874314352052983,-0.1006910490169813,-0.12517435513205322,-0.14202509076432726,-0.1479481985555075,-0.13742573953263906,-0.11554940728306555,-0.09442575155691316,-0.07374014560764157,-0.056701127473047785,-0.043179316003241465,-0.027311612854304265,-0.014129641330502601,-0.008331326470065509,-0.006406876862959628,-0.006035249989162316,-0.005779745931772055,-0.0015985893447296711,0.0048319515042502615,0.010057288914823,0.016641198817256155,0.02605783417457034,0.03333287669136616,0.0328731808026269,0.020487263822126168,-0.010575008090387857,-0.047525978981086736,-0.06940585895633565,-0.07028432809074316,-0.03742095857686071,0.014027841200966147,0.05255387454311611,0.07639935845365611,0.07471093041706034,0.053887672455958775,0.037799681467550465,0.01874235810314779,-0.0064527473400222595,-0.03255181557799128,-0.06316334242051,-0.09038880054347993,-0.10296860364013061,-0.10835274337835274,-0.11550774479146941,-0.12349973935558714,-0.13645687206378504,-0.1502414476017958,-0.15486776382724945,-0.15234000279169108,-0.14275173665339067,-0.12981402523182678,-0.12342066342388594,-0.12582717046269754,-0.14103596077371983,-0.16263621334297754,-0.17677600374772454,-0.18151692502568204,-0.17110112990203874,-0.15133866201416651,-0.13706287384142743,-0.12683852527050712,-0.1227203781979757,-0.12207849481653252,-0.11421899179257845,-0.1011263449821373,-0.08342111067794855,-0.06608208755483023,-0.06125633880813919,-0.07202222821860152,-0.10353711936689419,-0.14446428231249658,-0.17282226242276683,-0.18317131910385065,-0.1638054854309309,-0.11623625752045563,-0.052949722404030605,0.03596957040639351,0.15738457347916568,0.30543389851209163,0.47753327865880973,0.6677259625252613,0.8650009597994366,1.0615182999770272,1.247286803578207,1.405518824581805,1.5174100419477907,1.5832032008563734,1.6080951408061612,1.582116736014502,1.5007196185400673,1.3742116196957492,1.2148860076229728,1.037267618160596,0.8639989351450547,0.696724458446469,0.5318027805308809,0.39019420580792485,0.2898443476872563,0.22203101690468013,0.17570672680219313,0.14791668964310992,0.12576358407612817,0.10779414682164233,0.09720471070884035,0.07512363633209598,0.021925528266018755,-0.04396199840972732,-0.09726450630080252,-0.13335367677829743,-0.13522840031047959,-0.11813594502966944,-0.11566552573450749,-0.12198043409278467,-0.13951865242243583,-0.16535593573490023,-0.17979256994593387,-0.1873133642718773,-0.19074200856528975,-0.1897833121155128,-0.19324615867570005,-0.19975290172089064,-0.20749547013155797,-0.21500726574641038,-0.21597341980833643,-0.20907115565962006,-0.19246434710986468,-0.1717958349854412,-0.15820008191754278,-0.15466745205564583,-0.1671571092664127,-0.18756223475262637,-0.19901432891336543,-0.20007000024155416,-0.1845735018416094,-0.16044061084744,-0.14691119105625533,-0.1436815474556836,-0.1549150205081976,-0.17365527483149834,-0.18094724863749162,-0.17681353501287814,-0.15753065031565805,-0.13030626340956367,-0.11435433497904049,-0.11052662184044307,-0.12359741525665204,-0.14723308369530766,-0.16333213562036497,-0.17260442950967103,-0.17201350502916066,-0.16384518909322504,-0.1598718459355557,-0.15671553360634527,-0.15249770487952,-0.14741451641928688,-0.13622110475093696,-0.12021247469009154,-0.10123187170762596,-0.08322749056052689,-0.07435631162473964,-0.07896750614730788,-0.10300257805797042,-0.1356211532174125,-0.1573959445977643,-0.16329300675242137,-0.14211132012138208,-0.10545133667384493,-0.07905728531583242,-0.062191340473461226,-0.061190650039509034,-0.07104864074472529,-0.07258937969356251,-0.07087761039530341,-0.06796728042499012,-0.06535937007303612,-0.07414775430464782,-0.09343898397032332,-0.12247925459275931,-0.15407394577591027,-0.17266272010664271,-0.1723313610436431,-0.14378181354923314,-0.09937889084002868,-0.06422542317233029,-0.041280530804770205,-0.04102936232337275,-0.05489987645080913,-0.058834978402963416,-0.0574560712909293,-0.050014849413571066,-0.03896343729622065,-0.03901840641595195,-0.046807512518977655,-0.05977431815031355,-0.07503518596233934,-0.08155737696111588,-0.07680569603277995,-0.057147282342841214,-0.02863746858005044,-0.005219843343422879,0.011267391306044594,0.015275331228189217,0.010773498667359601,0.01003134865639191,0.009956325890712709,0.010077769278863799,0.011941467659872246,0.012040361290319013,0.014171114651126469,0.023140794346359097,0.034741066659527864,0.04458612547987657,0.051800442034279456,0.05289272188166423,0.050027500685093214,0.048297886888061865,0.04613899119182195,0.043369630903736606,0.04196203779243333,0.042412043073578126,0.047370735900550874,0.060465143521675965,0.07730638436942794,0.09136308860377816,0.1011585675695714,0.1026053113845391,0.09848368801924033,0.09581162458241292,0.09299447918811757,0.09031275783804806,0.08654764246822054,0.0767012685249919,0.061545004765582424,0.0414682261555175,0.020855557078714986,0.008324127210864191,0.007526413990970906,0.024069401457230872,0.05004297310270634,0.07003959977859425,0.08155136018536926,0.07728154446434421,0.06479460264413686,0.06215857400342282,0.0680229885118359,0.08550034403581526,0.10728879061856192,0.11450370551759288,0.10632187873246,0.07838635830459735,0.04006950630186321,0.013645298719139887,0.0020333458539854277,0.013331696125909585,0.03984550360921197,0.060075331970981125,0.07624137268463915,0.08556878074342453,0.08732803877113511,0.09053704533400352,0.08805614484348488,0.07261963846165485,0.05243341337475808,0.035048226193232446,0.02481932542054606,0.031156456478689185,0.04523264414015627,0.050928927988825395,0.048727823741606946,0.033866508757749554,0.011798081958753379,-0.002223792911631278,-0.009752223063441246,-0.009335955299994172,-0.003596889429292065,-0.0033898945082628277,-0.007638489778303825,-0.016735100504411342,-0.030082374532862378,-0.04172082955762151,-0.05315668122032003,-0.06548518372088216
2,-0.05136352309624203,-0.05154704467546049,-0.05161017891579364,-0.05041733640939784,-0.04806021387267902,-0.04422551190983012,-0.04080896479577368,-0.041041595282821336,-0.04622917595209494,-0.058548617979294046,-0.07354117318280969,-0.0833033760800735,-0.08563842199468147,-0.07591504955875719,-0.058699698406180355,-0.04423814308733627,-0.03222684044638719,-0.025254194864903948,-0.023265150323037633,-0.021402811225211045,-0.023533475054738184,-0.033175622726422695,-0.046828299811267834,-0.06172649655857002,-0.07584212934056137,-0.08479482403030021,-0.08995222548974366,-0.09454637745918842,-0.09585235360820128,-0.092338616734759,-0.08469089815050593,-0.07243950763048461,-0.056379428236680316,-0.038193865704722746,-0.021338411533129722,-0.01097185479625085,-0.011878261861099922,-0.030261067648549068,-0.056141565409377155,-0.07275424020726902,-0.07555098697181895,-0.054178296041583314,-0.02045253604746825,0.0008374789806481718,0.009409722966819106,-0.0019318328868810288,-0.027076516167067712,-0.04572340794931067,-0.061963374779182095,-0.07609457737858215,-0.0859447592960439,-0.09786891770352654,-0.10626615322216011,-0.10439986874178551,-0.0975775984778272,-0.09040534738991583,-0.08424334593649765,-0.08399448797773729,-0.08595584639079541,-0.08274526165104272,-0.07595596358439126,-0.06503718439610309,-0.054363026406804724,-0.053575891009987574,-0.06477111049368818,-0.09191264385814547,-0.12468540274078388,-0.1437927579169326,-0.14357605763462802,-0.1128534780771911,-0.06638113838350616,-0.034372100224821844,-0.01945806313549438,-0.03292265937978757,-0.06573906150331377,-0.09085246585337882,-0.1135347331901778,-0.133235407546787,-0.1442833363527884,-0.1511573312117133,-0.14288329754091,-0.10578000843994413,-0.046540402832715634,0.02735294207495206,0.11762374225033911,0.22028059108081716,0.3401138634872489,0.4873892694109756,0.6595389128747404,0.855633146638485,1.0585805582147774,1.2392287472287637,1.382525621954916,1.4659739986586697,1.4943080616321693,1.4880057309679104,1.434998818004406,1.3310645376536896,1.1902791563501693,1.0232132809465566,0.8501696263745455,0.7009623862063105,0.5676730307946916,0.43379688530916527,0.31542990430577517,0.2198925132861884,0.14510857074776182,0.09553792301537571,0.064391459868354,0.039637581044867025,0.022098321349664475,0.011071451627769993,-0.0056993315163612855,-0.0398223685973563,-0.08184001182602837,-0.11755792220261622,-0.14531871421681308,-0.15638933001091646,-0.15551069860460975,-0.15610247567469746,-0.1510321966555827,-0.13565279327510454,-0.11793184601757198,-0.10314465891190658,-0.09735946926238098,-0.11101819665050179,-0.1344847800941969,-0.15151217905596298,-0.16163386326392845,-0.15839497302938785,-0.14549882485194693,-0.13577028132012892,-0.12464154961052094,-0.11001436253668252,-0.09653037652042577,-0.08492198145233078,-0.08053965954571538,-0.09134155089770579,-0.11029147113692495,-0.12697779338550122,-0.14072891443937302,-0.14641186119494132,-0.14826144068236238,-0.15714753256672895,-0.1708591958755571,-0.18963677317143987,-0.20832913353125176,-0.21453092456852835,-0.2058686092229536,-0.17781039870861257,-0.14142347907044886,-0.11839136938527987,-0.11437765543754508,-0.14108956638043957,-0.18330445819442392,-0.209007911357104,-0.21605469581255715,-0.19338403641892207,-0.15565299811062966,-0.1388340151912215,-0.14233143795349149,-0.1736966457402696,-0.21927160547339186,-0.24267878271334972,-0.24304638654679425,-0.2121905526425276,-0.16110893108645666,-0.12261574715541405,-0.09529809522115715,-0.08431343371291043,-0.08696250536458118,-0.08396791561177862,-0.08249025056074648,-0.08764048460598231,-0.09426375851166728,-0.1040239911140461,-0.11165814942317721,-0.10845957422727275,-0.1010730388430873,-0.09817274058401751,-0.09934413501159842,-0.10832002966689573,-0.12146665101460184,-0.1296472072220733,-0.13426417544377298,-0.1348047004436673,-0.12990935365073344,-0.12183762610408447,-0.1078303347816148,-0.08474002150895295,-0.06044889627313758,-0.045189760040003066,-0.04454087005758973,-0.0681588716608968,-0.10396331822605066,-0.1298638598569994,-0.1429034430965413,-0.13292392371389605,-0.10898561804657234,-0.09437056890145167,-0.08594610852730213,-0.08616915038770652,-0.09447347550887726,-0.09921915712409085,-0.1062209450772542,-0.12087507361744142,-0.1368172413361465,-0.15036507253170447,-0.15747299269669887,-0.15034859707977744,-0.13372908042687268,-0.1160532255076373,-0.0954075958837427,-0.07321639442194854,-0.05074344083623248,-0.0259423533639683,-0.003203668923455333,0.01240897374164578,0.021424456809096378,0.023692967738174225,0.016723039295479157,-0.0007291630573084976,-0.021581921244424884,-0.03557016195434422,-0.03593851656678436,-0.012090622148850665,0.024209800446071083,0.05123515664233246,0.06723387971151866,0.06325251617360386,0.047533182310496275,0.042014958650140995,0.04330836525504996,0.05286557955018642,0.06721292247963098,0.07117110274551032,0.06673831446616657,0.054308549814409995,0.03802573530043329,0.030951461681191717,0.03495091973439374,0.05384973760047477,0.08155498481607414,0.10314720877608441,0.11750442877818246,0.11987259492929916,0.11592451665483815,0.12081822724658042,0.13345848730290713,0.1559960016084979,0.18113683516945747,0.19133315059537992,0.18442532151867755,0.15480070042614802,0.11122273581751162,0.07448247940577829,0.046460850342873526,0.03424408691961459,0.03288234455005828,0.025512004035586858,0.01636704010674285,0.006264993589983751,-0.004301183907875021,-0.0067472119977443476,-0.003998047464047568,0.0006936499418261221,0.009217818138770593,0.02025580028903023,0.03391952639188489,0.05140166748584113,0.06959078798840303,0.0847329326192337,0.09482195941684224,0.09644894533952147,0.0902055503525929,0.07865763498917133,0.0600703681064733,0.033840506614786284,0.005677807631387085,-0.017420436328511164,-0.029391057030388166,-0.021234037113826813,-0.002505576359089264,0.009784273420132272,0.013961211379516999,0.0023283265322772456,-0.017069955964370494,-0.02477857067742096,-0.022771303660934737,-0.008518236106455749,0.012287953046601402,0.02245052902349546,0.022027354243716147,0.008217870876272695,-0.01455251116424658,-0.03187877453461459,-0.04407270752822734,-0.048740139332630904,-0.046873148140903924,-0.0466796847791948,-0.044714280596446054,-0.03837949505834926
3,0.03162614115623809,0.01586189720033424,-0.012938358735744698,-0.036399763653021285,-0.05455524938694477,-0.06278278737051014,-0.06355441679133497,-0.06902736497968012,-0.07443164714232225,-0.07670088359100896,-0.07753948102525195,-0.07371954034608869,-0.0673191026855454,-0.06193964108103744,-0.056607819712384766,-0.051476210925421505,-0.048360554527648494,-0.048332636429041724,-0.04870112480290895,-0.04545175258780962,-0.03664969091699284,-0.018805938267947242,-9.947152692614693e-05,0.005838692836321397,-0.004940880274229364,-0.040480136520749194,-0.087295874486913,-0.11969409908584196,-0.1329045458054818,-0.11463284333919811,-0.07815670421138092,-0.05452394538431415,-0.04295730848797519,-0.05077828150720974,-0.0704651162553698,-0.07674588752690456,-0.07411480239538189,-0.06279840702271046,-0.046304631931493624,-0.04146223457939971,-0.04708257873291662,-0.06341001990487033,-0.08413929378322056,-0.0922908192979499,-0.08457142393712687,-0.05454974640647007,-0.012701666445218711,0.01791503213287562,0.03474199979514792,0.029203065328477974,0.010484859000225407,0.002584054945076382,0.0036444824215046074,0.017319883433684402,0.03882587091516337,0.05008921505598506,0.05401098740779401,0.05095436705343164,0.041866995048137,0.0365698104207526,0.033270215642343094,0.030630398389116863,0.03182107635001309,0.03673141057560935,0.04873916623628745,0.07268092324557919,0.09950992395818052,0.11636399404887043,0.11804091168266165,0.09442536716699453,0.05423224543274687,0.015934272871584568,-0.0213999875985652,-0.052930296141051485,-0.07579018739175679,-0.09445726884683836,-0.0989093951653858,-0.07837131814805219,-0.04669502083257789,-0.021703431672360975,-0.010370942190003545,-0.028150496029354318,-0.0620931289840368,-0.08533925171460215,-0.10087391129979897,-0.10362179715251199,-0.09588260297627443,-0.09337583566913926,-0.08898454350626821,-0.0769950491247413,-0.0634357102986272,-0.04964889136311227,-0.03982060088387849,-0.04181383176733737,-0.04991703707261019,-0.05538909393969337,-0.059191987021881186,-0.05863115067167129,-0.05862091583416195,-0.07019222802096552,-0.09373642743137708,-0.13193572316481572,-0.17156610883689838,-0.18855448311045442,-0.1743257388671661,-0.11391756901647944,-0.016188739648704875,0.09487804843225861,0.22386725897490511,0.36801609510673894,0.5222945883883753,0.6907169308237655,0.8596716857771725,1.0127265839943986,1.1545482869244248,1.2900470915740314,1.4134955547795178,1.5245512743570004,1.6034343468471286,1.6196067664340057,1.5608299486855144,1.4083213208790277,1.1959065071542627,0.9861887329513647,0.7974006008801104,0.6680462298482961,0.5794338322633644,0.4753297536891067,0.3764096753612788,0.2880380776514516,0.2071846894365738,0.1555988154105517,0.11709696742386838,0.07018362102947645,0.028128894908320972,-9.30371894093578e-05,-0.018431087294518526,-0.022885571798323623,-0.01941950308359298,-0.020348728340004132,-0.025133223359311316,-0.03547772840949187,-0.050896984734963575,-0.0650746749605513,-0.07859336337908945,-0.09071874924209203,-0.10095918226435999,-0.11159747987762123,-0.11945122013878866,-0.12090668810635424,-0.11890875816993275,-0.11663146043667695,-0.11464495816879691,-0.1155010825084614,-0.11786191093271427,-0.11836880955020858,-0.11864308587527148,-0.11950149632889705,-0.12055903064296596,-0.12279801933416125,-0.12578667447600564,-0.12871859041646627,-0.13167479167127558,-0.1343124581303191,-0.13605467092960546,-0.13639669357004558,-0.13663101678043463,-0.13879437473540032,-0.14367589378162823,-0.15275534628262705,-0.1616990072206238,-0.16333502156069946,-0.15520969472715235,-0.1327383349156914,-0.10323768652437795,-0.0805502609853235,-0.06722320914774652,-0.06996058642905535,-0.0818182970794802,-0.08636839304926355,-0.08437634225312599,-0.07235986020428685,-0.052673518557164935,-0.036352756832591315,-0.019846350027797336,-0.0010828547422750186,0.012291260997295437,0.014459669801954263,-0.0019388600160897655,-0.047977748069292246,-0.10648355931607281,-0.1501464432719871,-0.17153085610600136,-0.15350941235349572,-0.11267235862845199,-0.0855266670965356,-0.07058861084628465,-0.07672007251533668,-0.0956657399527083,-0.09860383248889591,-0.09186199430899625,-0.07713155517653526,-0.05653985806176446,-0.04656165999690798,-0.04525624769897645,-0.051259869284638826,-0.06444395200573207,-0.07683463002590671,-0.08918773379031412,-0.1019523245356852,-0.1097255864480126,-0.10860457713417333,-0.09250752007131731,-0.05296959836560568,-0.003132456148888705,0.036375705430354226,0.0592721080186729,0.05166284654173333,0.024260988148036584,0.002043083179498944,-0.01856822762220673,-0.03400279880897813,-0.04214312432582786,-0.0515511750082125,-0.0521439103373436,-0.032965023145001625,-0.004822640700649181,0.020741436016709514,0.03963191956658057,0.04085551642989716,0.03242828310843417,0.03115179826737126,0.03350208623978881,0.040905899954091905,0.050055379541373395,0.04848547952431491,0.03778541160260326,0.018218304796510893,-0.004386567097082986,-0.015864997004013927,-0.012191712175048476,0.013442350179786315,0.0521656984614534,0.08456666438177698,0.10900701876385797,0.11836328464311494,0.11515391430705996,0.11209673260258986,0.10263325776588357,0.08241037711682087,0.060113870731978866,0.04228266446363622,0.03699079316276418,0.05732214167239177,0.09200394786565501,0.12183121991088941,0.14691663581301215,0.16014623736204095,0.16185198395653624,0.16138179309667064,0.14975156400886466,0.11891027885039104,0.08159811247857933,0.05180202523103263,0.03790841060950498,0.055710699197556654,0.09026871738074192,0.11364877684661431,0.12608856985621664,0.11863286503260323,0.09824220731130842,0.08783639920661865,0.0816274270715289,0.07797840515444832,0.07926783180478256,0.07826738490016576,0.08013020090790549,0.09145988325065814,0.10596265857256476,0.11804129468796529,0.12563741315783278,0.12293323322308605,0.11436287661064333,0.10880219234527123,0.10501467543580062,0.10456552041192987,0.10653251099645392,0.10551701735174865,0.1036177957119037,0.10242089682327159,0.10102624824867625,0.10064500895990405,0.10068819562442188,0.09990179510805455,0.09673974321876416,0.08839045045067803,0.07262507357687135,0.046666430975677804,0.01643755908363824,-0.008220974220880547,-0.024028917469167355,-0.02445807044413078
4,-0.06891684585406051,-0.067690502005942,-0.06617265366146446,-0.06363813620141245,-0.06109148827052151,-0.059868906430954084,-0.05856547445750216,-0.05550081114337077,-0.05036441816715519,-0.04204797431795472,-0.03216741466737116,-0.02380725952758323,-0.01731204342276327,-0.013891098673410276,-0.014627395774962599,-0.019642682645606657,-0.031102971170404323,-0.05136713688878762,-0.07295595187473436,-0.08508383112254392,-0.08226111803991454,-0.05515556054875131,-0.0163506678516323,0.011059838103140282,0.02357083715847723,0.010307283190675072,-0.016737715805229314,-0.029594702656938584,-0.02936072338014179,-0.010102423705148451,0.019109645831615608,0.032241633638749205,0.03052365698500387,0.010370337239949432,-0.01922983306340608,-0.033214427671417905,-0.030111431662137204,-0.003726374056835673,0.034763308266674786,0.057548286150994096,0.06272993297853413,0.04217048308569688,0.006728956092693148,-0.01496497269891181,-0.023541162557371525,-0.013356826725480105,0.008246472487725308,0.01732884016538484,0.016400350271462884,0.0038248033730494666,-0.01602323045548359,-0.025649408972572382,-0.02646108776548975,-0.017657522753793047,-0.00020002100638832166,0.016295102751490067,0.034126419003552795,0.054809058161434325,0.0730212311207844,0.08569880295813663,0.08722962737688673,0.06939708044475933,0.038779900266646815,0.006201152529798712,-0.02789040318045868,-0.05844456383595818,-0.0832030454067152,-0.10393832256206731,-0.11229915697135646,-0.09946208225676571,-0.07546703605535722,-0.05396002805489803,-0.03937149520825406,-0.04262490184632972,-0.054536763454769155,-0.055573230273812224,-0.048555033802924884,-0.030794011757413593,-0.009568636974205425,-0.004339984421540707,-0.015699689311760294,-0.04751846763376145,-0.08898468944430618,-0.11550963412195611,-0.12226197747616807,-0.09855402279054319,-0.05997619285029075,-0.040450939495838265,-0.04274276307066391,-0.07857128861111917,-0.13243944126915863,-0.16625079280679028,-0.18040809334915295,-0.16657315252493532,-0.13026010726818074,-0.0971748259573633,-0.060076583698321466,-0.01568783361837675,0.04177548848094136,0.13266168271793044,0.2585545179970328,0.42246868084452766,0.6131725406922985,0.8049912551467251,0.9910958254233317,1.158277446677862,1.3032799029865327,1.433594120676805,1.5334924069063542,1.5886692358549097,1.5997461328479299,1.5641145460690686,1.4791891144288258,1.3473310586630682,1.1809595671691262,0.9990462219903363,0.8197918913547645,0.6685338655945888,0.5395946147125953,0.41566944611253803,0.31114554714310744,0.2325399291709795,0.17450122148635813,0.13733284048378294,0.11035599763585174,0.07643506320200831,0.04252045602649694,0.018627699708571338,-0.005047095809104909,-0.033600028841691006,-0.06366983970896394,-0.09481726784683017,-0.12373576516948172,-0.1435942550635507,-0.1560526528113435,-0.1637357226389037,-0.16072023090777357,-0.14204732140553605,-0.1182929463926894,-0.10352218225035244,-0.10441517385313254,-0.133365936225215,-0.17571503634882504,-0.20386179924461545,-0.21554358592244016,-0.19986520002470712,-0.16632754253721052,-0.14140666792518178,-0.12093560381899472,-0.10665404520866237,-0.09978047067810696,-0.08974422612320088,-0.08403999695855464,-0.09065262066891673,-0.10249594801497056,-0.11436760483282385,-0.12333832941731859,-0.12188471092539079,-0.11399457124286637,-0.10772691050998898,-0.09981804477309422,-0.08972625263825985,-0.08161613986128244,-0.07780479146255453,-0.08359272566384827,-0.10649268029361222,-0.13571039036768348,-0.1546558556074534,-0.15922711827869254,-0.13925663960212958,-0.10521668172862082,-0.07983552793809245,-0.06264815062717773,-0.05954802960535952,-0.06721696421080843,-0.07032496019628329,-0.0743629356683517,-0.0825285192751226,-0.0916401476722632,-0.10427552395299665,-0.11657271630907315,-0.1224808922744153,-0.12397729268261326,-0.12264996241925989,-0.11607474186604956,-0.10355771643303142,-0.08971409466420423,-0.08051573495637819,-0.08070216954251547,-0.09754146885589608,-0.12202445040967555,-0.13838890301756088,-0.14458040974527336,-0.13326463204864733,-0.10928809901737513,-0.08693874572788363,-0.06252882848794115,-0.03567613043160955,-0.014081333383505078,-0.002150412624180917,-0.009551760529126763,-0.049614393969135855,-0.10424204197230257,-0.14542081849839453,-0.16601969674320152,-0.14830280987412134,-0.10680696194499398,-0.07541220119534016,-0.04970751342066783,-0.034621213544657296,-0.02861361352838462,-0.013752093601185547,0.0006000662815675386,0.0059833306278983,0.007757175128090596,0.005265320678870915,0.0006592131111797541,1.9031401172457804e-06,-0.0015204317929159183,-0.010390941672352357,-0.02547466209144193,-0.04817857927673773,-0.07191731325604357,-0.0843534019539467,-0.08156323046676978,-0.05658491192190312,-0.017232771971712624,0.019537082208980358,0.05244327747213162,0.075075219265923,0.08711109245116483,0.09602974405998699,0.09348101259035281,0.07189338573458398,0.04294834468555769,0.019945600152266728,0.010821929662662216,0.03053990370366815,0.06390126248189155,0.08291067943768364,0.08715209567659503,0.06713420142950179,0.03501465208333767,0.02119619907086425,0.024352771899621754,0.04973141867174795,0.08815759371167617,0.11232338508255732,0.12240818410912828,0.11350757970657203,0.09370483679706675,0.08740244703246125,0.09399353617806609,0.11743678457104346,0.14939756025979625,0.16645860263209705,0.16821685090084124,0.14991588849058507,0.11937387962896909,0.0988011574298169,0.08829883220752882,0.09243703070615354,0.10531311011756801,0.1080215043136399,0.1023271191067367,0.08656643696839526,0.0650528645756234,0.052843494429925676,0.04914110200213721,0.055261613907725986,0.06801339154799646,0.07573870889136095,0.0786676749223648,0.07520429372140279,0.06823858958763065,0.06742486657741113,0.07220427434906138,0.08361028871136439,0.09765964784476291,0.1040945815797496,0.10181093677925815,0.0877920720852269,0.06680112227835108,0.050492982115674996,0.039724682626512894,0.0381641853957298,0.043185851040041266,0.045547671815497195,0.047542649059548345,0.049667053005846215,0.052162934708064816,0.05969881613792526,0.07072015880747601,0.08349098718937942,0.09510717050006084,0.09920876409320611,0.09249470390758091,0.0705864542293757,0.03997631665311204,0.012997559919619792,-0.007829351929418773,-0.01600554520100576
5,-0.026254186909750184,-0.03195214256136412,-0.03938120162184317,-0.03608993166228023,-0.02346225497469851,-0.0013047998191551508,0.025762257132140014,0.04530163317700238,0.05481874242692597,0.04953420390101988,0.03420150784888682,0.021512834522495146,0.010895020889875533,0.005010217440727935,0.003598063391637669,0.00032253130102963474,-0.00027078880391989387,0.006027205236233867,0.014391237048044042,0.020851023254980606,0.022537492717158547,0.013570184600890609,-0.0040429097660846635,-0.025605502945106856,-0.0543826135758562,-0.09186427044875417,-0.12822326620419103,-0.15149511546619585,-0.15240911455348688,-0.11683473631368575,-0.06318860453649733,-0.023505538053727026,-0.003365315732590686,-0.01927248022302878,-0.0536900166369666,-0.06653183376116754,-0.05971828145776319,-0.024863307018635046,0.025168192293239338,0.05328186304022758,0.06135155202103588,0.044479452137684394,0.00940558013185921,-0.0168687450904478,-0.037245140445427545,-0.05046408317429758,-0.0558686970045246,-0.0652320503724824,-0.0721444344675787,-0.07013906277037021,-0.0639704955504085,-0.054883598881053854,-0.045345405261279635,-0.04124157604462256,-0.04003280509858981,-0.03758456444418388,-0.03678758900603733,-0.03877688686945276,-0.04270130537610805,-0.04916380493105727,-0.0569738170194669,-0.06407885142426709,-0.07092082577557082,-0.07787431565473069,-0.08340067353665544,-0.08629377032830068,-0.08879864806753411,-0.09399828525820156,-0.10331481957746948,-0.11947716308838865,-0.1365766882152209,-0.1446915439115159,-0.14114604909272851,-0.12027945787401192,-0.09416614611285541,-0.08474655939157756,-0.09754042961837757,-0.14444763714281553,-0.19685114028258033,-0.20345432805168706,-0.15037655525918872,-0.009045525665313293,0.19148743722944375,0.38559855669278814,0.5735412126596335,0.7368990975560821,0.8823827309962909,1.05028115062877,1.2199450914316559,1.376000653369148,1.5103859505958244,1.59281487061806,1.6155385055516365,1.5713714091732383,1.4701843886174917,1.340419360310001,1.1882982881365087,1.0286607577690792,0.867659942410717,0.7004550898621416,0.5508510681475872,0.443448573553175,0.36457394204662463,0.29673387076610347,0.23853983391269112,0.17599126805720544,0.11716538553240617,0.08178538708937422,0.05746879673354789,0.03520986960379866,0.016334843306883545,-0.006117576429822419,-0.03456925815677516,-0.06916239526322066,-0.10597657219582028,-0.13601680219733828,-0.15412957138851752,-0.15212916765955514,-0.13765232246127315,-0.12598070799225194,-0.11561900532009572,-0.10957217358709953,-0.10632892364317001,-0.09661619521985393,-0.08432195812701983,-0.07240587693983438,-0.06108292234060312,-0.05498275604858984,-0.054620999449731894,-0.060024733486170836,-0.07077040138680088,-0.08404850291706491,-0.09937237546204593,-0.11566835262328624,-0.13111566304427896,-0.14448195039672396,-0.15253810751826358,-0.15137791556885397,-0.14545661826813008,-0.14174914384040987,-0.14198222748253397,-0.1507908373382505,-0.16251786186974462,-0.16579723457188805,-0.16054104515274306,-0.1435871645432643,-0.12114589563976666,-0.10739491896587254,-0.1037985345856772,-0.11506879714343841,-0.13467496403767407,-0.14662202133210636,-0.1503188344170633,-0.14130171516370635,-0.12352438715423121,-0.11014890182427386,-0.09868801252407555,-0.08913294624407044,-0.0837921067792466,-0.07982196724160752,-0.08186432848379763,-0.095679163686767,-0.11308216282604185,-0.12368776687194764,-0.12344316876287235,-0.10364284152281134,-0.07465692276744977,-0.05616148002016298,-0.049597927152596574,-0.06242655429651213,-0.08646023717754799,-0.10082017781867518,-0.1068961174262977,-0.1012826627333979,-0.08771376150549,-0.08127260572704613,-0.0791841252417422,-0.08083563142318084,-0.08603657742101613,-0.08744934706223911,-0.08712434978021197,-0.08712962643634663,-0.08742640586263332,-0.09143966693131707,-0.09943053718281133,-0.11137249572466487,-0.12399014624972658,-0.13092520523163326,-0.12954767887180996,-0.11565341006106898,-0.09289535918166372,-0.06952386820543693,-0.045215418717583125,-0.02218062549192667,-0.002699125084265111,0.013822931944670144,0.021841249019784795,0.015015699395238823,-0.0006823092358058011,-0.0169429185682145,-0.03188414389436908,-0.03955050153192084,-0.04077534158456848,-0.040617018231806634,-0.03343069274101789,-0.014669432009729935,0.007659158851064622,0.024359935997366345,0.029628411218546494,0.01294434676436523,-0.014326151243572855,-0.03158140931732852,-0.037819794965132214,-0.025328322294755352,-0.001043611225544272,0.015531562617976547,0.02748651683141782,0.03373289150946936,0.034241266755073226,0.03803973654369612,0.04074097810532964,0.03802363094965786,0.03439805209057823,0.0320933418228403,0.033777005962525815,0.044845281726858234,0.06148585317017136,0.07725566254971808,0.09305250401480705,0.10728136373018787,0.11818161053514378,0.12617141302004317,0.12711868656465977,0.1162293948182385,0.09945798939018546,0.08517993435210665,0.0759039641531565,0.07777006443134897,0.08796318191231516,0.09854817229085804,0.11297067167397903,0.13246842459467986,0.15148159496996733,0.16569394223906853,0.16882166197365575,0.15159563201492218,0.12304881904114756,0.09816964238470118,0.07815434729861694,0.06990580045828988,0.07021724121135832,0.06753860640723254,0.0671246959867975,0.07193537140464389,0.07764942090761144,0.08340041697194148,0.08470162480324218,0.0743442626137641,0.05767416135833461,0.04275010468736654,0.02882961399610165,0.01861909220538628,0.013882702839073984,0.013466065662036323,0.022737026052065994,0.04762054720139778,0.0788706114548341,0.10371874589287766,0.11728341236588545,0.10937347461372394,0.0864613698573574,0.06378068826768825,0.03788186589090884,0.009947317688774496,-0.014132313006877742,-0.03296509836462542,-0.036632965099399645,-0.01236280992263759,0.02472182452682071,0.05223864358073575,0.06503165071263867,0.04877605021778154,0.016563407542765342,-0.0024373509848553687,-0.011127118999133052,-0.004527114142348769,0.012169588315725125,0.017995899446103233,0.01745572785993644,0.012251614631458232,0.0026031319844906147,-0.00139148219795841,-0.0016913938059987877,-0.00034846975618922963,0.0031604034795385113,0.0047846523568346394,0.004950524563646699,0.004451526858853114,0.0025214710236008465,3.774347346094045e-05,-0.0037814310340220443,-0.010100879195819078
6,-0.055725666719965115,-0.025386515734101105,0.024726348592079526,0.04852051114194038,0.04844418795819252,0.017786891212645525,-0.030112259138814892,-0.05458243558872286,-0.05599052653412034,-0.02756963524845793,0.018060834068973925,0.04370353700433321,0.04916309519654991,0.02720656783397206,-0.011805211518702445,-0.0355203145414191,-0.04598338750197706,-0.03928628621299869,-0.021298648130183284,-0.015637376294284293,-0.019042027907489406,-0.03149218843161894,-0.05068561210699361,-0.06221219452613926,-0.06805533624333553,-0.06912847182341976,-0.0627452051096831,-0.05187437984565885,-0.03264087216657715,-6.734424277026164e-05,0.0353147171606761,0.0598714725936857,0.06661053214156175,0.04295215470996119,0.004481404966839511,-0.020121698367411442,-0.02732429328976284,-0.00433986974046892,0.03369669721081662,0.051729710208570014,0.05058213812622167,0.022453680318118556,-0.02201694579068286,-0.05125259864400866,-0.06729143355936398,-0.06623447939342274,-0.054914083558543325,-0.05790376316005774,-0.0733658230385328,-0.10324530079712457,-0.13871543597452066,-0.15556443018356997,-0.15149769418894452,-0.11996755178725578,-0.07290314719850298,-0.03880725152001407,-0.02058017745959635,-0.027912693112365727,-0.052634133277060575,-0.06962800309191798,-0.08313114809368868,-0.09197992268568558,-0.09418555186824865,-0.09864609448800982,-0.09733237454124313,-0.08114942479310644,-0.05974141961571006,-0.04276396005015814,-0.03425170467212654,-0.04411134294234029,-0.06622859164489728,-0.08742459214563528,-0.11124763314252756,-0.1370942884597774,-0.15476166362681293,-0.155667201636524,-0.1273607925559348,-0.0527429800255086,0.05880008280256681,0.18976329946490256,0.3431922654992463,0.5142471839262007,0.6950261735920904,0.8823317532971815,1.0594277401941654,1.2057249166848434,1.3223455560593858,1.412555731202689,1.4644203152805135,1.4710726186503074,1.4337552222723224,1.3528120367946748,1.2320871374152145,1.0799421864592937,0.9067995273436,0.7272192653479506,0.560887706259097,0.43199022882349564,0.33282964763258877,0.24531249115561454,0.17821549763327657,0.13094577150308728,0.09912104949099594,0.08488306192154647,0.07331873366638009,0.04483890457501914,0.009760966836238383,-0.017871829766295852,-0.044228806515105204,-0.0680343375600296,-0.08852878336651179,-0.1109452326812802,-0.128193812887767,-0.13161522260945838,-0.12820462792083953,-0.1256626788926885,-0.12339454369554669,-0.12482466827032418,-0.12908210157463718,-0.13142593253324097,-0.1351534418134721,-0.14285589487164435,-0.14931176767749466,-0.14919472756329177,-0.13874568291083514,-0.11141843553142594,-0.08032995781018157,-0.06677760749710225,-0.07707444827379656,-0.12440146389133355,-0.18710584767470267,-0.2242191475514466,-0.2285213320466899,-0.18080115659822962,-0.10282089282211286,-0.04491312151717116,-0.006708933971542003,-0.0009442461571748357,-0.020018360417113128,-0.029545795348511292,-0.04107960271463448,-0.060916644142940686,-0.08149574188555236,-0.10802377060651587,-0.13079004393755267,-0.13514385113609093,-0.1303431910834181,-0.12714166316988917,-0.12381856572855571,-0.12492678136911983,-0.12883149998586496,-0.12836686895372396,-0.1285461253459885,-0.13360166800267073,-0.1385211921213205,-0.13934401123006568,-0.1336303528543795,-0.11604699144444619,-0.09497445297338057,-0.08424554709900274,-0.0866199558811145,-0.10925781374118168,-0.14224743800204423,-0.16496067674861295,-0.1753721140449462,-0.1657153411717675,-0.14572392725328964,-0.13898181452033648,-0.14517197843614185,-0.169570696263553,-0.20403702143271224,-0.22588950213862313,-0.23573547555236432,-0.22976778020468855,-0.20971696429610134,-0.18867987085084684,-0.16206899202454808,-0.12691613679757283,-0.09140978400321657,-0.06112566893982513,-0.04433578231833264,-0.05363037310273121,-0.07672109150557602,-0.09341417624444473,-0.10175642600963022,-0.09197570261224514,-0.073212254404188,-0.06793102043113049,-0.07290002016461856,-0.09010702009752768,-0.11084163772421775,-0.11220733695288783,-0.09193112639703802,-0.04378077918447484,0.0173860678891548,0.059536210296205885,0.07626836033198402,0.053038857497430356,0.006427626249265799,-0.0247374173116113,-0.04068623575822195,-0.03153785104146236,-0.005580488482840104,0.00714629321532547,0.013792690571322432,0.016513732475001156,0.014109063271048519,0.018879819670392928,0.025535447188659136,0.027667199992120053,0.02865855245137283,0.027532876730238704,0.024395405879489473,0.021654017223801378,0.021058769165202718,0.025713400508870755,0.03913566340745562,0.06547058009927714,0.09700982604275332,0.12116563279993663,0.13411540943067773,0.12775693882571448,0.1094941196390541,0.0958418216722341,0.08576546831119435,0.08295447005590015,0.08577631142250433,0.08420055124165733,0.08287396629618578,0.08536193892019084,0.08791947745940144,0.08983795735691595,0.0882557704991177,0.07793111364603818,0.06455430076080704,0.05657329482192848,0.05489830885601898,0.06364172435123676,0.07825443049704005,0.0883338293063748,0.09407997348550792,0.09302644873855064,0.08646075404634622,0.08106311546173817,0.07449687182874819,0.06542206066134224,0.056196258849725456,0.0470812661823642,0.04074542642474534,0.041243496492339465,0.04809719922155817,0.060515399969916145,0.08086129377207615,0.11055296192913452,0.1393203124735129,0.15276103981820682,0.14179415017122757,0.09230487968241825,0.02376667009020212,-0.0291237233950618,-0.060121471334268574,-0.05153891581654847,-0.015665441040680846,0.013682320936509796,0.04408121123995117,0.07473271899258088,0.0980439858106653,0.11884434195529912,0.12211170371003435,0.08890174515987681,0.03867113412617516,-0.002915248727594899,-0.030115888516138476,-0.025092703905299135,-0.001957101250903154,0.007208128127279128,0.008026615533475204,-0.0025111989211373358,-0.021242309908445542,-0.0288200352952945,-0.030932863371505623,-0.03184861717013219,-0.029745259606912385,-0.031033513990906012,-0.034379005685522115,-0.03716626484477152,-0.039945486906975074,-0.04039478132326707,-0.037871641266585945,-0.03215491830526527,-0.024812843041412572,-0.01926898492914413,-0.016396029507422184,-0.017867564796064328,-0.02163899223442418,-0.02314448013936264,-0.02226984912472727,-0.017680355472016452,-0.011931226326973191,-0.01082583372648106,-0.014795927177069085,-0.025570723097894415
7,-0.1377006137714029,-0.1206707719626356,-0.09100123656967539,-0.06418043006102112,-0.04190175706306212,-0.030559364132591495,-0.027388107091317594,-0.021145479386228443,-0.017225735755845385,-0.018922428705898327,-0.023249690620347527,-0.031141970945753904,-0.039323810274129005,-0.04222761371723347,-0.04283447772816984,-0.04496551743352865,-0.04678169530199625,-0.04840945330273786,-0.051024523921320085,-0.054616978846886675,-0.06144839108782319,-0.07453440840178978,-0.08843962749759361,-0.09534235205189805,-0.09275163343732104,-0.07536603221951406,-0.05051933454924628,-0.03236190779131875,-0.022726900255574424,-0.0276682356289297,-0.04020029810123877,-0.043706568737988775,-0.03859703126524341,-0.021173992615150256,0.0041532467919866475,0.023315266522650917,0.03800609256302908,0.047430991116517746,0.05202375955509513,0.058985824155544306,0.06578532117345373,0.07025521261253342,0.0726088559999931,0.06975132040763381,0.061825649570961504,0.0494988434473545,0.03414549274824434,0.019224256892827602,0.006384122560661076,-0.00202628549466243,-0.009339840835890968,-0.022003399505715077,-0.04089276339160668,-0.06884381654832325,-0.09849362883134681,-0.11626398387547607,-0.11892886346557208,-0.09966368935661739,-0.06916894824493457,-0.04912836919867429,-0.042788882821716466,-0.05954688152219833,-0.0883792593369667,-0.10333047377265706,-0.10482145363614899,-0.08678528962148986,-0.05732620793852614,-0.04017612035205416,-0.03349104177342074,-0.039866011579560615,-0.05636844489932257,-0.06769700197774851,-0.07686016366475491,-0.08501273638115453,-0.08992429091298501,-0.09560161396119043,-0.09802426828950525,-0.09198824876780029,-0.08274702486065205,-0.07590639851893152,-0.07344893649639957,-0.08059946152876456,-0.09461247113250836,-0.10899689094172231,-0.12613269850837913,-0.14641727039352437,-0.1648820729674183,-0.17737554687698978,-0.1781481509887497,-0.15899956833558396,-0.11751757998750854,-0.052196928891455524,0.04466975603628186,0.18003183178645912,0.3449231317060789,0.5257509489415024,0.7164950297879032,0.9047921527061962,1.0845403589722917,1.2534260723583837,1.394072861484077,1.488389177786344,1.53855830183237,1.5489154635773146,1.51338700395504,1.4321073478202473,1.3121545917970592,1.1616029131563883,0.9945551720626492,0.8307492065753775,0.6709921962394132,0.5123870364732143,0.37159690631935716,0.2621011470532328,0.18051562321536463,0.12315768819145284,0.08939193882711924,0.07201085320447277,0.06501848006961974,0.06166241743801816,0.04472881041957834,-0.0065377873058453505,-0.07352568434519226,-0.1260974146991361,-0.1622847826315449,-0.16763586879939335,-0.15428428833062294,-0.15361751154206846,-0.15799900263196565,-0.1662808462844617,-0.17718270674891007,-0.1743574010859986,-0.160904010276795,-0.13958591373107784,-0.11291726650949217,-0.09220540774552731,-0.07958518966880306,-0.07819612106709345,-0.08635277317453782,-0.09623709760880846,-0.10979590272254017,-0.12731040709457328,-0.1440991568812624,-0.1571695266424491,-0.16018637609271594,-0.14440353421936258,-0.1209090920032213,-0.10701365548429718,-0.10654682804200978,-0.12993178082706738,-0.16400049592342336,-0.1818260795648992,-0.1823539094156934,-0.15717814331673485,-0.1169696315700066,-0.08954966187708277,-0.0741391586513035,-0.07610457013373269,-0.09024811297335965,-0.09611948259115899,-0.0975648173160653,-0.09518319621025823,-0.0903657955737496,-0.09469316508345745,-0.10582657991395232,-0.1217827709143381,-0.1405251011717551,-0.15366531965747274,-0.15952406130262156,-0.1556580801213417,-0.1455545564530616,-0.13822496250825717,-0.13423690237110372,-0.1364210973367402,-0.1421319440840209,-0.14331613770275392,-0.1415781977385661,-0.13699976887564103,-0.12947094795125855,-0.12259258577284216,-0.11480776844698655,-0.10443731278885612,-0.0943183451144261,-0.0868181983980512,-0.08378292455972304,-0.08851359037517562,-0.09761694853974931,-0.10515141542411745,-0.11054300037049565,-0.11109156709694938,-0.1085953720038825,-0.10838913899481507,-0.10898132335619887,-0.11005632874198477,-0.11051463536145599,-0.1063091000962042,-0.09743497081154649,-0.08359037790894157,-0.06836688663260256,-0.05881167687346208,-0.05763552950753139,-0.06932543935471407,-0.08773302660306555,-0.10071673338640762,-0.10670042130166653,-0.10044601383424284,-0.08591602607539903,-0.07447295880765804,-0.06372803199938679,-0.053880559638543185,-0.047104781247117256,-0.04122865209650026,-0.04075289054342683,-0.05127756280361215,-0.06588622452745536,-0.07567835465972561,-0.07780091994169222,-0.06533411766934069,-0.044277684051330424,-0.02734872336397211,-0.013415875339966144,-0.0050884392376766485,-0.0012412737433649425,0.005627370145148114,0.01210912286083886,0.015552871026237949,0.019032344984784268,0.023470254475336495,0.031205698138589064,0.04644772390048807,0.06353718317615921,0.07395973450529277,0.07598020133889719,0.06478243518799177,0.046587546581458784,0.034246205568122225,0.028691226271016026,0.034444702064836547,0.048091772802544445,0.05875110622282843,0.06867478440455153,0.07781076486782752,0.0846806706980795,0.092238881553182,0.09677951212184215,0.09378334925989813,0.08849745728559609,0.08705914892140908,0.09158864595807407,0.10730598787315482,0.12718054781764251,0.13830826454120174,0.13931068625498297,0.12495303984787687,0.1009865604799958,0.08164376333641066,0.06644660858766449,0.058407358119850726,0.05639521812985751,0.052148555613912316,0.04938104227840547,0.050840485105335086,0.055583933597670075,0.06611979403196468,0.0815398207186782,0.09983034249418822,0.11806532652459314,0.1308464980117225,0.1339230520694296,0.12185239718315939,0.09948275373282145,0.0763563232081206,0.0528967725425361,0.03297704412170442,0.01675718053894052,-5.387050928698116e-06,-0.01190900200108426,-0.013833551931463031,-0.010298950317509303,-0.005850537639191175,-0.002413639450500459,-0.005111511640281937,-0.011293432069611467,-0.015054329320379558,-0.019247910786417327,-0.02502041790301165,-0.029022779096544497,-0.02913684858006416,-0.021822827120799193,-0.0016862413202282233,0.02143689497355592,0.032443622616024834,0.02678061926928886,-0.00528516341401147,-0.051893208620161606,-0.08901082755191557,-0.11483704943824427,-0.12050048782120402,-0.11186831861764694,-0.10855839695190793,-0.1052435487338757,-0.1006205406392507
8,-0.05979356630710236,-0.045816230506985293,-0.025474714626582805,-0.022681687181381204,-0.03608678661833258,-0.06849121509008838,-0.11033889826975138,-0.13676117419196157,-0.1445683537559009,-0.12564864609905207,-0.09152300611131224,-0.07041357765666165,-0.06352859192317219,-0.07893752719306091,-0.10607801806672401,-0.11655968279657504,-0.11193265526768371,-0.08786271375531164,-0.05089827540539655,-0.0237045629067906,-0.004257945939254414,0.005831177703975557,0.006489645476096259,0.008254141903788733,0.006275424185379669,-0.0038873216618092515,-0.017679859360870163,-0.03356094032516813,-0.04803786039052591,-0.05464999819904338,-0.05448244618466022,-0.04975272913400944,-0.03641177053124268,-0.011892468158019795,0.01805178264877425,0.04611771623975741,0.06734962048943709,0.07329561492372398,0.06917765309073043,0.0659410786989786,0.06092042749949097,0.055188488294808,0.047716860695769504,0.03197087196102618,0.010912546370385506,-0.012599167744615943,-0.03811951921314147,-0.061997693112057134,-0.08239676499254313,-0.09761104523786905,-0.10790117463788396,-0.11540844002299114,-0.11932682677588105,-0.11963735074388217,-0.1177605571051151,-0.11469754986546633,-0.11300675856332384,-0.11619169122725825,-0.12110375127104304,-0.12273716463667643,-0.120919007282215,-0.11346295913721252,-0.10369224462618629,-0.09868398422346084,-0.09859471163422372,-0.1052191071910596,-0.11592939448212636,-0.12367202357597497,-0.12820759097426332,-0.12771765222757367,-0.12396636197063082,-0.1227920011654035,-0.12325218943185323,-0.12550176845882624,-0.13038114991574382,-0.13636427347771557,-0.14545630832344353,-0.1600490183291225,-0.16810068122506522,-0.15306369832670583,-0.10569976846623072,-0.011175840130676176,0.121262967541781,0.27064850499321447,0.439806816183552,0.624126455910064,0.8146690891867521,1.0084066022197415,1.1879145976791534,1.331731817137024,1.4415026493747527,1.5211162684340247,1.5591286189154632,1.549732807465033,1.494969666126067,1.3960321391018107,1.2585415410424898,1.0928616371823299,0.9098655125609292,0.7243407549042897,0.5574360301394544,0.4344306749916675,0.3433923872278452,0.2600486075145859,0.18935226887782117,0.1245357562596184,0.06866834944505025,0.03749418654516739,0.017573928183177313,-0.004771281389640209,-0.025346489509906086,-0.04522086765791891,-0.06925280859531381,-0.09841989093147611,-0.12752037642281372,-0.1483824870822031,-0.15429164733481263,-0.13472061676932712,-0.10489142338667769,-0.09057817667057969,-0.09521667118126054,-0.1302954189236472,-0.18229322932481734,-0.2198364079943744,-0.2427399002312238,-0.2427904105187883,-0.22576588714199392,-0.21459488482901407,-0.20313417314198323,-0.1891545732541391,-0.1762736880574802,-0.15897734989681042,-0.14381624734732806,-0.13965270467950686,-0.14079998149378334,-0.14173044203476523,-0.14279042550035936,-0.140407527083463,-0.13727266962041532,-0.13971122613036388,-0.14568841647153163,-0.1544839605239386,-0.16454569992094417,-0.17077849832401903,-0.1720956261532863,-0.16682383555501537,-0.15928001932128558,-0.15805493282049476,-0.16549521295140518,-0.18635755645980176,-0.21099939461000586,-0.22155084814911088,-0.21422280425214593,-0.18017991249827292,-0.13251442314098433,-0.09835035606856868,-0.08068788961454462,-0.08998247687749789,-0.11541180299814913,-0.12877966097939825,-0.13227084465550867,-0.12145913801161513,-0.10256225338031283,-0.09765965986651243,-0.103661472196643,-0.12069528712762287,-0.1441569101417898,-0.15711260384045567,-0.1590210600655286,-0.14717722079583653,-0.1268441724661198,-0.11356819240040633,-0.10794236314344231,-0.11368065825351406,-0.12850681938228986,-0.14181835382232216,-0.1569977047747566,-0.17576567264415924,-0.19443646459075106,-0.21270156610350074,-0.22604076604650836,-0.22781495130570067,-0.21985068947382036,-0.20488524035401165,-0.18006315670704964,-0.1445563661847605,-0.10663572901177852,-0.07694691417245363,-0.06403243078507871,-0.0807058532010936,-0.11291755150138982,-0.13548085606586463,-0.145861815204485,-0.13280634356205415,-0.10576687950477823,-0.09003063475294104,-0.08084132686660346,-0.07912310313175902,-0.08408060265968477,-0.08283674397915296,-0.0801924424515376,-0.08070030284800823,-0.08048254431753948,-0.0800192129373364,-0.07716204101726631,-0.06745092246967851,-0.055373136008535224,-0.04704533917129991,-0.0432768826452378,-0.04745716253762107,-0.05421998467000861,-0.05308323415690499,-0.042657666453289673,-0.018672604114554972,0.010952139675166854,0.02998917337123525,0.035893264687371924,0.02184042934113526,-0.0026794364042957977,-0.016472822173222858,-0.01825778151091123,-0.001273710815360103,0.028136596207384842,0.05096993633977253,0.06996245168681643,0.0838970948841002,0.08988289444988339,0.0926514234935748,0.08509883049870046,0.058938440482343264,0.027507571533288967,0.00770246719258822,0.007086082339676576,0.04068976056246827,0.091229194575571,0.12608038163544377,0.14294190765423168,0.12929398291333485,0.09473534141485453,0.06818793437654291,0.04351650607906612,0.02077565745656143,0.004405668011225955,-0.012680226259243744,-0.020594803321590638,-0.007159341023585079,0.016754634793591794,0.03889080698979635,0.056363001960291786,0.059268325764153446,0.053460694286000254,0.05294410237287515,0.052874077599974256,0.052196088833421736,0.0518786092661897,0.04689861913132674,0.040491472774021764,0.036873802223626385,0.03304853960007533,0.027054126462058566,0.018992733386030816,0.007196643217791638,-0.005097388619851665,-0.012407316405503884,-0.01357730504324554,-0.005921857081353225,0.006327067185783847,0.014573255367440247,0.01732641296823135,0.010602164164635221,-0.0022048307562720203,-0.012206195249543937,-0.020628337240695384,-0.02650072238780552,-0.03254927912458753,-0.046826374426415136,-0.06909427703767096,-0.10028478287483576,-0.13123007615557053,-0.14501860517421622,-0.13517703574910625,-0.09096561380893228,-0.02883584314111285,0.019676725624282368,0.048900057224252,0.043544497405800346,0.016698144187735197,0.0018924892590319892,-0.005424735205347803,-0.001428928220961387,0.009452726114817853,0.005252905581448948,-0.00807549669526763,-0.026581568316512073,-0.049894746497231114,-0.06722557946934508,-0.0786902464031285,-0.08471973168579484,-0.08619162261191346,-0.08953232968251112,-0.09486232617150761,-0.10308283391252894
9,-0.009956432504699641,-0.03245636100454747,-0.06995879775911154,-0.09753649746637309,-0.11396731359241773,-0.11150365042350151,-0.09548498508433001,-0.08524076808804733,-0.07542983071226392,-0.06428234844822447,-0.05596264205866941,-0.04742275138933102,-0.04529891762143242,-0.058669893226288,-0.07872501515374672,-0.09428607964176684,-0.10331485662893332,-0.09838161911527041,-0.0857410554858578,-0.07948894978386903,-0.07760296387458666,-0.08181433548101968,-0.08919300346565949,-0.08902976724586056,-0.08260178738782127,-0.06976536220687017,-0.05296299071223123,-0.04069644509311218,-0.033588693392470635,-0.03350696656956502,-0.04073780877374266,-0.051673880342482735,-0.06899215608793569,-0.09497800229150433,-0.12280638527828638,-0.14440411381360885,-0.15390806932514733,-0.14183240674681627,-0.115442865252615,-0.08892912983220438,-0.06138803297247907,-0.03699651626160986,-0.015663236051613794,0.00933137938240134,0.031461712347339625,0.044475747011516034,0.052283993384903506,0.05741791773047615,0.06069407159483786,0.0659956276186267,0.06880355366565805,0.06149713992254735,0.044516740904635574,0.016211325923644014,-0.018133355119973084,-0.0474640714817311,-0.06899764160297532,-0.07724922141827331,-0.0750909464803062,-0.07182027383682063,-0.0650391348585482,-0.05489836474410085,-0.04591715744712644,-0.04022685943551863,-0.04477678749980861,-0.06889583113637986,-0.10179560617149064,-0.12698200711585997,-0.1412488164461147,-0.13484948494706123,-0.11681339916321563,-0.10774307365543992,-0.10549525656293345,-0.11330847076093899,-0.12621802644945468,-0.12754861536822476,-0.1190722627913464,-0.10004208449747844,-0.07611307640650294,-0.06318395389446864,-0.06330974168618633,-0.08129764160679595,-0.11024901538684653,-0.13277914772593433,-0.14808424744137072,-0.1511635286942449,-0.1449478344778663,-0.1418139093198267,-0.13757957362847162,-0.1301520768008208,-0.11802991282721385,-0.09327326561920597,-0.056051344155981224,-0.006575306616229309,0.0643031541183382,0.16597174046885108,0.3062829994923476,0.4964828547386573,0.715508502215463,0.9288507721920298,1.1248262895692411,1.2798143367211463,1.3933380086301503,1.4808587924790568,1.5207981435333378,1.4961130983878355,1.4204138075447048,1.3060914595981103,1.1634668743357404,1.0146940911546967,0.8597637047645884,0.6927455172831793,0.5359488676184608,0.40939491577768083,0.3055827647210157,0.21614427184269935,0.14251909321902456,0.07708786885970205,0.02421960702401957,-0.0058759230564538285,-0.023277738930846566,-0.03756533347714342,-0.04765265463647909,-0.05644194404603605,-0.06967314720494262,-0.09123878631630702,-0.11533685684418922,-0.1321431076921108,-0.13703738674026292,-0.12097186392192738,-0.09654431371407457,-0.08648535283427404,-0.09228199597882819,-0.12189746225209769,-0.16461914601375172,-0.19453441589332846,-0.21087130469332124,-0.20663656124440488,-0.18762173124329845,-0.17424889708421057,-0.16248204458492463,-0.15212911976682914,-0.14631008994246852,-0.13995368419713278,-0.13999146803413223,-0.1550158698518613,-0.17524639242012832,-0.18906068815425411,-0.19259684306280905,-0.1761607542209721,-0.15089209650952326,-0.138113204129925,-0.13864090105452784,-0.15962997082307748,-0.19214884763305706,-0.21351251457123546,-0.22437159758747505,-0.22028371204300862,-0.20497752150523907,-0.19437974983172196,-0.18496145270415595,-0.1756607960959155,-0.16841349040069348,-0.158530997450083,-0.150199942731303,-0.14877390822894146,-0.14944844212835673,-0.14756518029126756,-0.14175261316499552,-0.12763887666277016,-0.11236521562319743,-0.10827734668028746,-0.11746181462845488,-0.14564712074782502,-0.18262319132946012,-0.2080344791872393,-0.21831488473982766,-0.2042771517809877,-0.17359429724267614,-0.14678124696848824,-0.12128825589631195,-0.09974126960672665,-0.08582721126628151,-0.07525674701178897,-0.07767600043590335,-0.10423574270073975,-0.1399660013776982,-0.1653863485112322,-0.1732293334036564,-0.1473814823214941,-0.10305355517618657,-0.07109624719226047,-0.050147509934525804,-0.04811396907316382,-0.060214040927459835,-0.06529341078140664,-0.07069180569902435,-0.08066350766596692,-0.09024596559852986,-0.10215901048183215,-0.11082344979952807,-0.10755216144288832,-0.09824535170420598,-0.09002975812533617,-0.08223852767068936,-0.07810330944215192,-0.07663987649206794,-0.07322610695557283,-0.07118604873778189,-0.07322367136242364,-0.07957087238758273,-0.09264998292253135,-0.11363607046133972,-0.1432267472832617,-0.1741507933771354,-0.1948294735003583,-0.19885361902374268,-0.17619459206990248,-0.13757881959216547,-0.10384672135086402,-0.07646413320070229,-0.06371578351008071,-0.05997198900850652,-0.0474283258832692,-0.03136547291563035,-0.013511620948799243,0.00592760594053798,0.018396510054080495,0.026261929712620508,0.03242439780515688,0.03558186453716424,0.03789406732734942,0.03971409516529419,0.04072349904299554,0.039483265458093456,0.032823735176734724,0.019667603526057186,-0.0017055553379779216,-0.024661100668971276,-0.03817162427292121,-0.03806496542925427,-0.01697389418964927,0.01577009562023423,0.041617287559857545,0.05843038618996284,0.05838360913997439,0.0482018480754005,0.0462006308061864,0.049316348657299905,0.058648627292958395,0.07124364905161296,0.0743429538454989,0.06984785036368486,0.05844877114069614,0.04209439435720276,0.029555628253868774,0.02149745155164055,0.01957433863354053,0.02264953583384399,0.024920798086473826,0.027752142653981567,0.03153253295256797,0.03527731861133629,0.040323119547499786,0.04451705348219752,0.04503140204547076,0.04244724652331916,0.03696376708823315,0.027354600446615238,0.013146136538350586,-0.0015595956966989461,-0.010937121981320895,-0.01106404146939677,0.004090617605371538,0.024582452178496514,0.03339717556101797,0.026583773799446344,-0.005328688644583997,-0.04945192736907207,-0.07936378847868117,-0.0929461523341783,-0.08076319067621801,-0.051157555746636385,-0.0284122780503002,-0.008982742578284382,0.005341744484275449,0.013511223369855782,0.025354065491059646,0.03376618360359841,0.031230772442239887,0.025274164213244067,0.02208325287567984,0.025195495710566868,0.04286838058623742,0.06276303325554712,0.06437708343971914,0.04423293728690681,-0.007613317587354463,-0.07532749212754913,-0.12671991707135014,-0.15739152883110488,-0.154113616833117
10,-0.09452220802316352,-0.09036374750884042,-0.08419182320530451,-0.08098720412520352,-0.08096794410231632,-0.0854451342296732,-0.0927829915991415,-0.09830285637550978,-0.1022483577389931,-0.10388741188548681,-0.10309263457941846,-0.10187436960634909,-0.09876696616835491,-0.09237474030981985,-0.08479385896538225,-0.07808540597050558,-0.07370501291474704,-0.07434003794019871,-0.07780830660327595,-0.0800273042520061,-0.08128490833003907,-0.08045534257340198,-0.07762578805355513,-0.0748067617967842,-0.07036573967583105,-0.0628050174668772,-0.053701541498241925,-0.044391210086130825,-0.035714071551241615,-0.02951988316834287,-0.027547178676441693,-0.03167594907030644,-0.04504866552520516,-0.07127099061712074,-0.1020161865376227,-0.1244407586288432,-0.13327014151107788,-0.11869854888500382,-0.08898219040627296,-0.06197629300661189,-0.03645253337573982,-0.016694741557730913,-0.002384139485568399,0.015247282878563497,0.029345536517843128,0.0335225485086294,0.03249973654712861,0.02899577049761203,0.024866782822754434,0.025413889540036372,0.027072209232387946,0.02351011479311426,0.016812560892897416,0.007052113327242583,-0.005859231434257262,-0.019186736636792948,-0.03410015813521753,-0.051931202898298154,-0.07008851254414313,-0.08612788503000406,-0.09853342226279349,-0.10457109272866184,-0.10716681058014695,-0.1116342012074186,-0.1186208007526597,-0.13063954967626548,-0.14521313532806046,-0.1563166622820653,-0.1646152004532362,-0.1693338910524223,-0.1700968262969204,-0.16915889638254827,-0.16457152190926658,-0.15433060434719792,-0.1416778952454772,-0.13020351033896205,-0.12197376053856752,-0.12087665629844398,-0.12343994948229228,-0.12301980594443332,-0.11975570939478677,-0.111567596897263,-0.10257118869606596,-0.10174754503191208,-0.10978185812983665,-0.12934304550168665,-0.1547478347688624,-0.17366797624332686,-0.18398042986734411,-0.1804624796400073,-0.15879286024772354,-0.11855308739499971,-0.05070127892603413,0.05449676158658039,0.1901632513340351,0.3462446979673416,0.52070270621282,0.7057395632551865,0.8941664636414671,1.080396318873283,1.248830690082569,1.3814176613585638,1.4751224432169876,1.528347626391385,1.5283171699766023,1.465637460150029,1.3523371523094878,1.2064177884188874,1.0393400631238598,0.8723380370936964,0.7089099107612037,0.545422604867598,0.4056194513070482,0.31173791833132347,0.2502147189039962,0.20303773098612135,0.16651950971702006,0.12437477517838696,0.08132334566506101,0.05261181780221386,0.021283289095233512,-0.02716874894035035,-0.07969618928185115,-0.1243539582237479,-0.15624764643466724,-0.16156931047382642,-0.15156720058695192,-0.14786382721917343,-0.14610011762240924,-0.14807427018416844,-0.1544275867515659,-0.15615628067461493,-0.15851061593620083,-0.16676539667821833,-0.1774901191778938,-0.1899621710366508,-0.2029915311104988,-0.21290416765510897,-0.21978278285984537,-0.2240264333696733,-0.2223877950109791,-0.21201063804769188,-0.19716147090666272,-0.18385778655191695,-0.17450033596066147,-0.17411731324005958,-0.17913754105489904,-0.18161622261865734,-0.18319985465878183,-0.1831998220118044,-0.179781554011845,-0.17399128557551755,-0.16191150474590574,-0.13875212327290248,-0.1131222520246429,-0.09689498471375291,-0.09476117247092039,-0.11606671795120381,-0.1500005381285255,-0.17553961264099058,-0.19123234913840045,-0.18916761048123984,-0.1772536492297598,-0.176616931352968,-0.18483192514591537,-0.20415250152641837,-0.22647270183374138,-0.23033128008587472,-0.21411767152948327,-0.17248616562055774,-0.11947545108281783,-0.08527236754615762,-0.07611948816479563,-0.1057649993680717,-0.15575473830995026,-0.18543905999509785,-0.19233748806869658,-0.16313159758878254,-0.11391712725430232,-0.08679125977960692,-0.0793011781612674,-0.098163818644116,-0.13302542003871926,-0.14937908829880528,-0.15005891408930908,-0.13227080317696405,-0.10345175166987652,-0.09044897082159951,-0.09235416025658745,-0.11218636237729815,-0.1423804550555136,-0.15943677249855379,-0.16297340530050347,-0.14854566403648703,-0.12253100647178322,-0.10515401900455601,-0.09523834241021548,-0.09535975389128959,-0.10352597219672988,-0.10736332620120513,-0.1105842906780539,-0.11559954101614764,-0.11835857521871213,-0.11887495949442496,-0.11278745578435345,-0.0934738627265325,-0.06888812718593505,-0.05037784806397502,-0.040538537494781986,-0.04658690483123722,-0.060920281472933706,-0.06739787777668096,-0.06628441198890259,-0.05334203680789329,-0.03396186145554049,-0.023367407629674288,-0.02042257750641938,-0.026967814172711102,-0.038823907304214866,-0.04289542545843335,-0.039233676520446285,-0.025701539182683055,-0.005896798670372941,0.008869051650387396,0.018830995377209888,0.02212971458768559,0.018929097886147366,0.014788941794567554,0.006598307382307514,-0.008316144373301741,-0.024142142582767166,-0.035164653983617865,-0.03661500397155069,-0.020563346699014745,0.0062486051996024404,0.03150381086147949,0.05533992846360122,0.07343971257933633,0.08544714687682751,0.09655932668379669,0.1005888108558717,0.09164371022802584,0.07650638878450795,0.06252716084928119,0.053335253917370075,0.05689203795947394,0.06805581517724082,0.07604069134996409,0.08367099135447258,0.09037864263098049,0.09465154692290392,0.09927769807059734,0.0999532049794486,0.09147584164095757,0.07787620512693687,0.0636563830968473,0.04922152385017688,0.037643289649794416,0.029121734595518457,0.02188947593294359,0.019549141385804797,0.025489265618746787,0.03484572192086453,0.041416347741595395,0.042454686993244777,0.032282945497079975,0.018005596903436057,0.01270983603776328,0.017431604708092636,0.037184873428029966,0.062493898380209134,0.07369550036997548,0.06811723986467991,0.038138910790814246,-0.0038981639115755356,-0.031117962379287892,-0.04056172976753951,-0.02231757461766243,0.01185521087481723,0.03251758870748088,0.04051593328135322,0.029728510751169498,0.007555163631334372,-0.0016333284296632675,-0.0009907656634337235,0.010478481315522712,0.029194020640568582,0.0386172114982315,0.04044180412586652,0.03460700892883072,0.022601443390382187,0.014356174321557214,0.008718941765551892,0.005423563474456718,0.0034913317798080045,-0.0032031027398748877,-0.013900673097854213,-0.028254622231031968,-0.0457132528494942,-0.06257514390921176,-0.0790667475082147,-0.09516434716465166
11,-0.0701577565806037,-0.08094554393455745,-0.09915430224395606,-0.12011457586033236,-0.14101812386723098,-0.15660136187106374,-0.16725650062427316,-0.17578008182165972,-0.1773393460758379,-0.16798902706052438,-0.1529144670872486,-0.13830012441991746,-0.1276701868969853,-0.12800845578713482,-0.13302091502925603,-0.13077621613465082,-0.12227957161168103,-0.10481509031716038,-0.08376634090678496,-0.07236289579613016,-0.07107116315816017,-0.08295649389218147,-0.10193341301375686,-0.11310823005573162,-0.11476005646234251,-0.10171673625500441,-0.07984953573311353,-0.06457332965289642,-0.0550898089547241,-0.05416487869051256,-0.061074284685399355,-0.06756634189377309,-0.07788517538076405,-0.09557459186664934,-0.11265955267422428,-0.12156694665079668,-0.11586899029261533,-0.08492389750455645,-0.04386347596464309,-0.01789321343623071,-0.01224118870029195,-0.04072615560678927,-0.0860038304200793,-0.1114788712126728,-0.11556690868791464,-0.08671693724783629,-0.03929114598999361,-0.010928891346247388,2.342321949000051e-06,-0.01307608905512339,-0.04039420288135595,-0.0503649731593026,-0.045373867900310255,-0.022401828366135364,0.010461366530643772,0.026805959897233868,0.026805794951151124,0.006469602830894753,-0.028321855212537342,-0.05670667174310369,-0.08014458849451916,-0.09650697671387148,-0.1063558655876791,-0.12033559183640283,-0.13355597674674838,-0.14171712502668493,-0.14894165499072926,-0.15612202260510857,-0.1663330386731241,-0.18537859100830079,-0.20529326966675718,-0.2142959894940418,-0.21001001560554935,-0.18582682081571936,-0.15100846762719533,-0.12426084710645229,-0.10761004331236032,-0.1083520128903242,-0.12229045942567918,-0.13469014666596366,-0.14983523502024407,-0.16878696905845178,-0.18709508138629496,-0.2052466830098282,-0.21634449433462333,-0.2109420451799641,-0.19646646694898443,-0.1833424972703152,-0.17187553738432307,-0.16734184228803142,-0.1681930935489959,-0.16742147493165468,-0.17014029740151154,-0.18032066102228647,-0.19153277706836144,-0.19774790892841695,-0.1944285414305326,-0.17333753044013223,-0.13031890937904683,-0.06220900596596498,0.04125093782182394,0.19059603459756094,0.3718904942771391,0.5636088733383846,0.7581436587504207,0.9387485562392539,1.1041751435250529,1.2627575034002154,1.3970279264310412,1.4916638981643933,1.544095056756175,1.5468815786288914,1.4936244933712073,1.381648694887802,1.2268580189220497,1.0554820075597169,0.8857052814419559,0.7457489588152981,0.6262299256021367,0.5011288338960123,0.38608373578157196,0.28721980808556363,0.20110696601634276,0.13482324120770264,0.07810727036360557,0.015266760449582369,-0.04183389632642907,-0.07933359208512468,-0.10093176104437916,-0.10397054739248697,-0.09555395607695712,-0.09203319581321348,-0.09508232681586702,-0.1094037885381261,-0.1327321657885765,-0.15421151983206655,-0.17577105037826954,-0.19668662160741385,-0.21367581495863786,-0.2271405469503647,-0.2300698397782731,-0.21358092756626854,-0.188534524393218,-0.1703453984482383,-0.16286401320533717,-0.1763839685763704,-0.20188634169199354,-0.21930104553880145,-0.23080028197738942,-0.2330290740846419,-0.22840033756271377,-0.22968174309628764,-0.23272118966197364,-0.23475892380982746,-0.2368252116396169,-0.23445072317542823,-0.22887386112013267,-0.22228722758495773,-0.21390351311722214,-0.20474088625961304,-0.19539957292624477,-0.18601882736014716,-0.17792977853286665,-0.17249646346711223,-0.17112047642853748,-0.17567046073323653,-0.1844100046226224,-0.1942317167413558,-0.20459171188536837,-0.21366618331738352,-0.22096982671858506,-0.22726104127646127,-0.2300047786316253,-0.22667713932706873,-0.22157574986712575,-0.2205328647273302,-0.226206669632506,-0.24376338477938622,-0.2667425696683482,-0.2831544324994186,-0.29193436925896754,-0.28833492554022533,-0.2730782587097663,-0.2527709319359911,-0.2227878890434916,-0.1796752077018917,-0.1350057853112194,-0.10230701304903919,-0.09151929025528809,-0.11855580725408155,-0.16378870736206771,-0.19274256202207224,-0.20034301364950177,-0.16979485113433385,-0.11899663964551953,-0.08966740295180377,-0.07943348173598277,-0.09635811758659503,-0.12989731390833537,-0.14552833556186326,-0.14707156903706026,-0.13257247342923895,-0.10666541631763675,-0.09214095813276464,-0.08621749109458862,-0.0886610204522627,-0.09964398530239553,-0.10866544874599669,-0.1194462852595326,-0.1356384600258948,-0.15053364299664793,-0.15951751507941792,-0.1570756990595537,-0.13412474959857418,-0.10147776051458571,-0.07672452335217235,-0.06288039379145628,-0.06939576449590708,-0.08555431713567604,-0.08783121581808856,-0.07657881760112455,-0.04598008674088095,-0.006739813701390577,0.014857703640449879,0.017552773084404456,-0.005475629427268038,-0.044113389440850345,-0.07157254947324374,-0.08729278862285914,-0.08478469399772406,-0.06772630520123847,-0.053959751121641704,-0.037586426587550334,-0.015506218915563131,0.006056324099290682,0.02653438615358601,0.0384004812759508,0.030497410634619034,0.012966246606869538,0.0005758544210480922,-0.005436414614177952,0.0025391171571006246,0.017749654469288827,0.023716347283079524,0.02310163283153902,0.014702290782242717,0.002249363523141984,-0.0012913306599263354,0.0036689572177397256,0.01846151418822334,0.040641508408912674,0.06062941748161764,0.07873466603190149,0.09367951757805343,0.10257129210980503,0.10579226386346725,0.09810327219160472,0.07325442622561518,0.042897776650260115,0.02354685416233488,0.022237293293028555,0.052510343174301255,0.09728347297246201,0.12435910842661115,0.13051111142247782,0.1026043634219395,0.05673254525376127,0.030959082896989024,0.02466942052751292,0.04641042337700409,0.08445846697754428,0.10426011659450846,0.10785943261819668,0.09071655549398047,0.05790777259619709,0.03288278811885037,0.011283448794731022,-0.008105591218262162,-0.02066677297843661,-0.030807187877504524,-0.03094161303783148,-0.011244523027961719,0.01679133543702292,0.03882287283146336,0.05000603532640327,0.03857927985341321,0.015187691680797784,0.0017089776026750101,-0.003372942277377461,0.004930470753138003,0.021150050224983168,0.027322765362259468,0.026437825220443908,0.018544839279020477,0.004160250578764171,-0.007612601041755598,-0.019058360372829382,-0.03213544753940229,-0.04475966417744938,-0.058251899608560094,-0.07058936267332651,-0.07858048154508904
12,-0.03857579211924334,-0.03283016103884477,-0.023231280139466497,-0.017584540275354534,-0.015680001262278857,-0.01895059852374608,-0.02536259648557252,-0.028345865049519747,-0.028434425771504717,-0.025018143147896913,-0.01870747508009729,-0.013459350760848383,-0.008282628177826289,-0.00258075280127984,0.002861575819132031,0.008785103146541785,0.01415191795125593,0.01746778372668768,0.019802737476707286,0.022327824555449478,0.025110182434222084,0.02894170604330932,0.03334406163448017,0.03710373568404065,0.04069396657235473,0.04431171648170423,0.04693977781500145,0.04767113830544791,0.045545173365780484,0.03912066906534903,0.030459485737036645,0.022940896518205474,0.017359378602598348,0.01569950834607023,0.015636603995415256,0.012261568157447151,0.005472344281983395,-0.006188970386952838,-0.020338651735981976,-0.03127417731556177,-0.03879652333256767,-0.04144641601078903,-0.040003679974241174,-0.03824872513221133,-0.035057001640872554,-0.029971062836548767,-0.024751495810549706,-0.020147890502852723,-0.018338817525382137,-0.022439916823830213,-0.02930493128539331,-0.034074209868754535,-0.03608548801421051,-0.032699743357125485,-0.026096389867318,-0.02164983359435907,-0.018380466680871968,-0.016609991225017585,-0.016072217714969795,-0.013898726018670156,-0.01109515042926062,-0.008550113291186802,-0.006058487638226184,-0.004669001330025461,-0.004381771560956551,-0.004979813052395475,-0.006122669074304684,-0.006812997621013537,-0.006635043162647689,-0.004990753895753375,-0.0036607370631209597,-0.00568184052811657,-0.012036466405871043,-0.024592581820758484,-0.038365571965385835,-0.044784729896713026,-0.04113230559404319,-0.02216109751570288,0.010927511888246639,0.05240614126853296,0.1057249420019591,0.1726425703989661,0.24926015519366565,0.33266112227297334,0.4182050210607242,0.49871911317783413,0.564936499298307,0.6049586875992699,0.605190854024622,0.5494033960844017,0.45250190356685294,0.3414887775302027,0.22046574476864875,0.1045425755031665,-0.0033374240949892962,-0.11164256434196768,-0.19970439314867627,-0.2472708362755948,-0.2682600856513122,-0.27886858175573204,-0.28280182619927813,-0.295114050918706,-0.308448661327299,-0.30471324277392814,-0.2954394925883099,-0.28815701528255533,-0.2783516913679097,-0.2677097484495945,-0.2538983628540614,-0.23081578516780948,-0.20454475461588015,-0.1829691384131518,-0.16529373521321766,-0.15348394386194422,-0.14543965411586515,-0.13459988443414134,-0.12090816453947718,-0.10284240064495126,-0.08292292486491745,-0.06782812082994452,-0.057515706808787814,-0.05330339021079556,-0.053882206559646866,-0.05426157499408369,-0.05528619650329808,-0.056981451494575286,-0.058738881553985406,-0.06203695931818357,-0.06542429041971405,-0.06717457158697832,-0.06760711205779223,-0.06647989627005196,-0.06331064419699947,-0.058122689078545904,-0.05165826851280982,-0.045114728963533315,-0.03957396202660504,-0.036621090935070405,-0.035349015432055035,-0.033873055679530535,-0.03275581586282947,-0.031884010254636115,-0.03126712640919099,-0.031789838250644555,-0.032772050589825526,-0.03343649655170362,-0.034020451258514155,-0.034458182554813144,-0.034447778629524695,-0.0338882349044697,-0.03295284037241338,-0.031933124691332575,-0.03103132134034864,-0.030606829836028224,-0.03047625939165623,-0.030233354555398807,-0.030102771541716103,-0.03019353473797152,-0.030318985636581697,-0.030397542191176186,-0.030233607943320095,-0.029512557320907438,-0.028508992688139615,-0.0276549380587813,-0.02694030504596899,-0.026521188398170234,-0.026393109741509924,-0.026350755545646795,-0.02658625075293588,-0.02726999608153559,-0.027724618311183283,-0.027072656096960617,-0.024780124784248535,-0.019983098499337222,-0.013956030645887949,-0.008936321844721238,-0.0053838642022551175,-0.004493157087400346,-0.005371313216458354,-0.00569396818392137,-0.005873330261859945,-0.0057189468942241695,-0.005132315007269119,-0.005053324560770741,-0.004728807607394349,-0.003342956098625886,-0.0012381085362087923,0.0015320456679234838,0.005054709166943579,0.009116976501208402,0.013609965530595415,0.018392927037525767,0.023055963246468306,0.027110829768620785,0.030855613209013887,0.03479420977494247,0.03881712858712991,0.043036535609360146,0.04737328025187936,0.051480511017656695,0.05554695161536958,0.05974682226372423,0.06366544339144455,0.06686665152577023,0.06908851021734774,0.06987266299158486,0.06977516770710501,0.06979418784043018,0.07007828856665763,0.07111255558383142,0.07265621071416381,0.07389858022641488,0.07514480784734018,0.07651312550591449,0.07765426125636805,0.07844284330756203,0.07843884229637546,0.07700026430985488,0.07554133797710087,0.07614927498962008,0.07959729395922818,0.08737839198712398,0.09708609309912182,0.10429876275490696,0.10816319114868783,0.10648168853899585,0.10108955300101681,0.09668217602947554,0.0926816817317507,0.08972663819499366,0.08767898901128604,0.08415227569413877,0.08050951298214667,0.07803121514749874,0.07581512466694942,0.07367855790842334,0.07125754960642196,0.06755115842764484,0.06317687660532001,0.05908881874904629,0.05492713068477384,0.05069119860116262,0.04661064597487829,0.04258867439471379,0.03900151459197194,0.036345269914998105,0.03429046957287198,0.032406964978918075,0.030732909917861564,0.02907721863514136,0.027345278067837528,0.025598845346169945,0.023490945633797364,0.02064262516203731,0.017659404789991423,0.015385635322422089,0.014138498931764772,0.014580544035774032,0.015973045465614177,0.016863217765269452,0.017202738594300892,0.016508057660803786,0.015205469174182657,0.014581653173803118,0.01441242183843258,0.014734974366957705,0.015330980576112204,0.01528804649619734,0.01468874980810011,0.01352657845133475,0.012028080686857383,0.010946324754221286,0.010369146524468065,0.010504212372047754,0.01136993199568996,0.012635563781965509,0.014566223460366687,0.01738272152882912,0.020700547398260764,0.024124979365497935,0.027326667200277096,0.029740268270646887,0.03164539527102001,0.033627486737718905,0.03546984189390118,0.03717686811440493,0.03866667579958365,0.039552864486421035,0.03996549586344797,0.04004057911658057,0.039616387969899025,0.03863823837675267,0.03706460918129486,0.034785313804647444,0.032034045242844075,0.02916679035028764,0.02632308234708287,0.023764306838434838,0.021507992831344313,0.01941340339043197,0.017703466300445607,0.016547936405894807
13,-0.015989561117729187,-0.014866843078472056,-0.013301467950388411,-0.013211080566047391,-0.014528810833433348,-0.017511279255781866,-0.02103612057119794,-0.022597417268508994,-0.021641247001823346,-0.01705706477410539,-0.011201236838040292,-0.00863114843578852,-0.01034952261686174,-0.018626354762854635,-0.029506509308248045,-0.035183166232106745,-0.034414137779819186,-0.02380287566328736,-0.00801150809658384,0.002626051552037237,0.007529734918403131,0.003442022183013606,-0.006004984425607836,-0.010774434432891694,-0.011687622398844397,-0.0074124529167445725,0.0005128056453165478,0.005192367106744744,0.008036530019619808,0.009595245256512092,0.010085076041103007,0.013050998940147891,0.017877552876025424,0.02395849451502918,0.03144054151477828,0.038849392226147896,0.046349889911160826,0.05419153167009591,0.06025244339121439,0.062207234040953636,0.05812451691319726,0.045150933049352616,0.027338899867689354,0.011573723448370177,-0.0004778987818707685,-0.004725386227280534,-0.0039609515647319885,-0.005403880488364573,-0.007447708816935504,-0.010405096999822214,-0.01407722437928056,-0.014828506527704177,-0.014452789230773738,-0.014815802019792457,-0.01506934143650887,-0.015688444740245812,-0.016812721490008987,-0.017962623209999102,-0.019194706685539922,-0.020332291215922275,-0.020929310860004845,-0.020517980389807025,-0.020039140520499606,-0.020947699972892985,-0.02361218335704175,-0.028866761082170695,-0.03509836871372284,-0.03931376301173177,-0.0408583889746341,-0.038216869671691425,-0.03300401442109852,-0.02893420006613906,-0.025981386575777896,-0.02513060701958606,-0.025778371600331793,-0.02532517795858199,-0.024671258045568606,-0.024321935823494803,-0.02438573077221266,-0.026229620090712395,-0.029747157272582935,-0.03474537065849401,-0.04034011295760522,-0.04461674680271446,-0.04669483931852289,-0.04526329170810445,-0.03809718691574829,-0.022915863040292226,0.0032811199975648665,0.0441211797252841,0.09845899366566854,0.16359048761850242,0.24036838855035056,0.3281054638222774,0.41918613012653017,0.5039657995092276,0.573718473919804,0.6161853963967939,0.6290305611862879,0.6134574664011527,0.5590008980536731,0.45711961971084303,0.3241514641445412,0.18298273371959572,0.04707390282249161,-0.05973555346355957,-0.1424215993231086,-0.21894207626967765,-0.2727164038727553,-0.29354147990684865,-0.2930284672246292,-0.2796170488254257,-0.26536243107812457,-0.27153403765572576,-0.28540345230766523,-0.2846551835264287,-0.27744845030519655,-0.26375566838851755,-0.24408020215837675,-0.22928731751766335,-0.21386135017796457,-0.19139796653362534,-0.16721873730267484,-0.14394218916792484,-0.12175565036653795,-0.10356590400650324,-0.0884764761280696,-0.07410654152541557,-0.0619214180140012,-0.05255649348549527,-0.04563582146214432,-0.04168704059993837,-0.04016473367030495,-0.04013786900232683,-0.04131570654651621,-0.043055809459950176,-0.044327479375855974,-0.044069485375769366,-0.04286417094584706,-0.041871750606975205,-0.04103712959631454,-0.0408766504964212,-0.041070514148750806,-0.04061445328189734,-0.040144704425639326,-0.04020192280413015,-0.040353235246231654,-0.04043432051861219,-0.040338978054825746,-0.039690591229173844,-0.03872083163992215,-0.03783025014005363,-0.03686612738543176,-0.03580577888020918,-0.0347432131506792,-0.033631745092382655,-0.03259603178366152,-0.03180573596960354,-0.031145193345436004,-0.030468972243473186,-0.02977775782838596,-0.028989925977482688,-0.028121852959793397,-0.027263301683005878,-0.026324676495992946,-0.025228053854106442,-0.024076673522411853,-0.022978324318999235,-0.021990257549189044,-0.021231305878236115,-0.020651300049411507,-0.020128309593074562,-0.019722927884962722,-0.019454974241153684,-0.019211974154849744,-0.018888584964527732,-0.01836141319686261,-0.017447849834371143,-0.01632140021728124,-0.015280697408442732,-0.014343935446049075,-0.013640811589424325,-0.01303374334381986,-0.012186735825351512,-0.01113776389161419,-0.009850093248668187,-0.008297057723894262,-0.0065961056118745715,-0.004646181806461672,-0.0023425125795383185,0.0001215804047105943,0.00252426733218096,0.004733475260727168,0.0065108578458993255,0.007996922492768677,0.0094961887684376,0.010941429118047961,0.012372750219573084,0.014191218885255904,0.016831288121658478,0.020758845506891235,0.02661807872821466,0.03343680638235749,0.03961621818907335,0.04474152117285162,0.04783335164144262,0.048923144413721135,0.04880202714257111,0.046558885539057744,0.04147754675564077,0.035848776714439354,0.032593365419560684,0.033618424732182114,0.042041521122629974,0.05485432958232639,0.0663737006665894,0.07641373001025227,0.08285728142442514,0.08665198056427934,0.09180057312975036,0.0964145367460289,0.09927708444272275,0.10145838295482784,0.10264131671690016,0.103850113545496,0.1068919105654851,0.11030731427410762,0.11216051901835358,0.11260715911760608,0.11095677801448804,0.10803405128331472,0.10589669422412248,0.10441831614036134,0.10390615995127518,0.10393074638518272,0.10292359348874039,0.10098053410356693,0.09792572952200473,0.09474643077817223,0.09359476321931193,0.0949152228466325,0.09960095739857547,0.10586374443059997,0.11012980774698217,0.1116569899113628,0.10871284375720966,0.10278196634509859,0.09766986912021741,0.09295041997023426,0.08918456437555215,0.08626562802684135,0.0822642852115862,0.07833259405675022,0.0755536881654077,0.07312205896982274,0.07078100508363123,0.06819130372285025,0.06445279790764696,0.06025465162959415,0.05669186162344894,0.05355508246875038,0.05102192258962965,0.0490373737782351,0.04702744834948721,0.0452459959274129,0.043902440104440055,0.04269064939938159,0.04143741960723846,0.03992263509484013,0.037759405330544255,0.03520848554679824,0.032722476207427256,0.03025013975152991,0.027925260921917456,0.025591116872412143,0.022815059943582416,0.019679213182964048,0.016195997321123007,0.012685999816321741,0.009808418643106678,0.007801617050348091,0.007045329862640219,0.007228381977858491,0.007594540122777757,0.008171742367836132,0.008755078000864119,0.009159906781428353,0.009476394983113062,0.009199293372986677,0.007756133039749853,0.006064287876398779,0.0053999713540638,0.0062596756928913555,0.00966581364942651,0.014832191749122143,0.020037198506193288,0.02550559150696114,0.03093895649577131,0.03597314985713186,0.04088460670010597,0.044751370413772605,0.04650687791374745
14,0.0029830341863671703,0.0004590645445578301,-0.0033990261683447386,-0.0051468125092387915,-0.004821750832087482,-0.0017995908959578804,0.0030489428393583756,0.006862002357579149,0.00982856804140637,0.011620194635779887,0.01261808437591311,0.014714255134877213,0.017500531837301218,0.020791340651829786,0.024829771775706302,0.029074508535565178,0.03395789163856101,0.04005241145099589,0.046572069163757814,0.052650656453922196,0.05789390546686183,0.061472850148219293,0.06352904839613527,0.06466192587386228,0.06431929376130757,0.062169621437217056,0.05893607948145578,0.055381531173896575,0.05221167494207207,0.05058023271576315,0.04959382905676543,0.04760916437746144,0.044790579566226896,0.0407142849481887,0.03517748803363423,0.028647842044412966,0.020249586759050357,0.009040874231332967,-0.0030321916743161546,-0.013391101310014754,-0.0208246877207033,-0.02308680218086839,-0.022086068295174205,-0.02176022115282616,-0.021927538612565963,-0.02367628388950547,-0.02584089597706283,-0.024918400576612935,-0.021560156879614007,-0.01582149838711847,-0.008813231749814918,-0.0037533509630448157,-0.001117690332970101,-0.0018627066157840264,-0.004962881972145517,-0.007431246076762504,-0.00931154563063608,-0.009917197569745491,-0.00967311056594184,-0.010597399697472436,-0.011878773791153631,-0.012950857810244609,-0.01404717093383912,-0.014562133789608706,-0.014714365011593704,-0.014951248639999826,-0.0152376767105466,-0.01581594465949478,-0.0170019465595181,-0.019079981263601102,-0.02241887717965278,-0.02742165007703311,-0.03461448717343893,-0.04460398465629577,-0.05478581573169893,-0.06123893049538675,-0.061974281914176164,-0.05370656176027948,-0.03526903804066642,-0.006822970811311903,0.03520149484744726,0.09412278941425221,0.16802548876317308,0.2542352540417535,0.3519346161870834,0.4583522780423886,0.5609520620434144,0.6430316359767806,0.6903012614070998,0.6832958176545063,0.6321604758494026,0.5593114774615666,0.46081912897580646,0.34201026629888526,0.21324421265378898,0.07888843408950008,-0.039721268834739525,-0.11601776597595491,-0.1643355211236464,-0.2074669895312492,-0.2410054583037223,-0.2724894323203811,-0.2982887958651202,-0.3026785685609687,-0.2973427051410049,-0.29338003656131845,-0.28599867814331803,-0.2754164946593645,-0.26389438933323506,-0.24995801730053527,-0.23442338686855357,-0.2181970665498874,-0.19885494305023096,-0.17355115305381574,-0.1465081887190416,-0.12346917842856543,-0.10496425798313756,-0.09342194530630134,-0.08685824426586128,-0.0797795863757345,-0.07263814561262891,-0.06448669706684455,-0.05586425249166541,-0.050117871560450326,-0.04589618392252655,-0.04218406015335874,-0.03929834097929647,-0.03614254816419729,-0.03299404425611335,-0.030505866840042927,-0.02814966300905369,-0.025700668444315726,-0.023258167267854356,-0.020711494007982466,-0.018102035484325957,-0.01557252896421855,-0.013169266612309586,-0.01100233180567893,-0.009361884064350633,-0.008599463962743125,-0.009077983654142223,-0.01126442318397636,-0.014808363837373774,-0.019040210366325458,-0.02392938652502677,-0.029168167509072536,-0.03402431033584727,-0.03776068748307218,-0.039314270798144174,-0.03733018786923474,-0.03329574625917913,-0.029693374711735016,-0.026982181629258778,-0.026590190937054517,-0.027582508824714826,-0.027458687651820742,-0.026958157821491652,-0.02621781356067922,-0.025135242368685,-0.024719007464392508,-0.024413662291913104,-0.023533617942395075,-0.022577613954066003,-0.021788718636021314,-0.021199110518126087,-0.02113475185728165,-0.021436836356105455,-0.021777118032889863,-0.02230640289700182,-0.023071241802797432,-0.024002060120405132,-0.025145978658999334,-0.02641234193286433,-0.027666275542410326,-0.02852244961634585,-0.0284072866670851,-0.026893183338310277,-0.02341024318373695,-0.01874178415806597,-0.014281176525731378,-0.010345034908879502,-0.007736274155694718,-0.005944192067779339,-0.0035832292756583185,-0.0010358934513611568,0.0016675898879464509,0.004818089927491769,0.008190446599912013,0.01235726247223827,0.018063793576237018,0.024824256075020947,0.03204654688171349,0.03977649948850343,0.04771610369102825,0.05514795335817273,0.061312580000084375,0.06518375806218434,0.06544117782719748,0.0636077173800415,0.062229361954847295,0.06178680721635405,0.06372789737241116,0.06738728150314939,0.07062137655607385,0.07439783727392033,0.07918136659199251,0.084703800789061,0.09157040289773938,0.09928593797238927,0.10706490350003484,0.11442945780068893,0.12041166037275579,0.12397553540099619,0.12395345668502791,0.12167163776371231,0.11950116071397596,0.11788301465250028,0.11814954719648364,0.11956718163809296,0.1199700328950195,0.120222504811969,0.12069824049213147,0.12115445450312015,0.12224345754441067,0.12348953208194358,0.12417697256607416,0.12466040080403068,0.12514198062526538,0.12540440742513012,0.12545199431993212,0.12532775269716073,0.1250132149986519,0.12463147044402886,0.12435627167726677,0.1236811617491459,0.12188357926181123,0.1186935097930013,0.11361252829874581,0.10712645985651403,0.10026772715740467,0.09307931415156583,0.08593152302848064,0.07922545084116044,0.07305360912564393,0.06824932397351585,0.06576715782288638,0.0645881356926721,0.06320420018927245,0.061215570584041555,0.05754204221548364,0.053096295157316536,0.04989126269831566,0.047599774747093204,0.046433493871011415,0.04590159409791154,0.044370820593245944,0.04195135486874032,0.03853438500083877,0.034506414656976014,0.031185136699331855,0.028655866487917944,0.027230382257345843,0.026281501810948796,0.024286816569845167,0.021135799957172675,0.01638403690542499,0.010756157271634951,0.006005876955719374,0.0022262720829715355,-8.712807204883512e-05,-0.0014133379605454869,-0.003261538302259946,-0.005431004066410574,-0.008027117444863431,-0.010600545412156116,-0.011799923127118958,-0.011616869803120641,-0.009849901439910099,-0.006551774020831723,-0.0024312962536932486,0.002745517668423301,0.009116988716613986,0.015610033191834235,0.021023183452965076,0.024310760268196677,0.023920495242255257,0.02154266903515093,0.020162483475056753,0.02017670619998706,0.02305962550207407,0.02749236837796314,0.03019225373035662,0.03167020088387758,0.03166032631361515,0.030649172742770684,0.030856548794021908,0.03190571886986656,0.03364470507571421,0.03591798141835474,0.03746241551402393,0.03833101498508575,0.03849875192461056
15,-0.019141777002852797,-0.016300703409789747,-0.011446967420146621,-0.008331296117025903,-0.006861185036831098,-0.007761001833161761,-0.01042549823613663,-0.012230677930946617,-0.013805920521203004,-0.015391265579770608,-0.016637534719626954,-0.018274243365027643,-0.019635372207510507,-0.019839051178400884,-0.019267330960285243,-0.018119413224021337,-0.016247555463223512,-0.013819437275109774,-0.011059663715850434,-0.008209820472921774,-0.005753277415310878,-0.004302299054888829,-0.0031613938315611678,-0.0012102046078743376,0.0017039032453954124,0.0061525780347037465,0.011237802339685965,0.015150499255592,0.01773608862960211,0.018373744207276957,0.01789535759663357,0.01833550245697973,0.019756075679442976,0.022711346976951315,0.02699017695396268,0.0313378193286142,0.03630494493263174,0.042249661605264645,0.04741719762450303,0.04987715490904478,0.048021141708373224,0.03938827303079424,0.027119802483173135,0.01662047540048544,0.008865993342137979,0.006714012358434336,0.00795329400651643,0.0068938393938626245,0.004571044955084679,0.0005894990738873958,-0.004630211403092961,-0.007842927606086944,-0.010193866441551737,-0.01268981173300611,-0.01487045175010585,-0.017590440124114457,-0.02071214973148576,-0.023770548145378618,-0.02648880272145633,-0.028046559164539426,-0.0279167409109232,-0.025470479241619222,-0.021324275456932554,-0.016762122754955828,-0.011822265113745638,-0.006961279932645056,-0.002840299405168485,0.00019728300175958743,0.0009426329170749615,-0.0020460372796031294,-0.007272614894294651,-0.012426544168224906,-0.017001871410814516,-0.019492913412207828,-0.02070506989078525,-0.022871806736181274,-0.025084149403322428,-0.02698137668998927,-0.02940548187209438,-0.032536438550548864,-0.037407654121827436,-0.045553711188494696,-0.05443907609989914,-0.060343184190188186,-0.062167786853763035,-0.05746903351205085,-0.04504558132095095,-0.024898346771729783,0.006141419907708448,0.05124683698581664,0.10986204653590607,0.18118352380484945,0.2658640636728181,0.36334186896827547,0.46514692953338355,0.5595239390237609,0.637396522452326,0.6857615783618873,0.700582440695662,0.6816150551501188,0.6162082461441636,0.493118349737398,0.3343157003392074,0.17143488138048163,0.021425077948102837,-0.08524283563038448,-0.1589278644816474,-0.22940359414484945,-0.27900437797672617,-0.3000613047301285,-0.3034363762112666,-0.2910006835212613,-0.27871991198331414,-0.29131580275297864,-0.31323761000353867,-0.3211635426711555,-0.3218765866203879,-0.3120608948501255,-0.29297440760123805,-0.27699526157224663,-0.25638967435131615,-0.22324154950642433,-0.18621391876885124,-0.15206482014972117,-0.12354791939789328,-0.10804641875239068,-0.1005239527205851,-0.09071304536307415,-0.08023025858843749,-0.06726809383259036,-0.05316007892948638,-0.04454560192334953,-0.03899475838253739,-0.034710694259423656,-0.03259386497819566,-0.030875257683825416,-0.03010198199574388,-0.031500643432058814,-0.03369356922975323,-0.03557330994753437,-0.03679592549659177,-0.03637615330543243,-0.035084998840231967,-0.0345127157279166,-0.03471466458435153,-0.03631981731544161,-0.03866054146683452,-0.040044102484822305,-0.04071887433382655,-0.04058103646940185,-0.03983662081868754,-0.039563139933280575,-0.03960146030935017,-0.03990028908900197,-0.04065852714764437,-0.04165315817967452,-0.043174436656199806,-0.045587597811990364,-0.048357230802820284,-0.05082389975879286,-0.05266861123233156,-0.05325785661816069,-0.05295412061070979,-0.05258195921575044,-0.05191643750109957,-0.05100328549969057,-0.05001086499606613,-0.04879984396178649,-0.04778330695224238,-0.047476742308037036,-0.04731351222516769,-0.046542898234013794,-0.04499895519147199,-0.042177471082392955,-0.038618315613221196,-0.03544197116240165,-0.03262007643460999,-0.03043198486370213,-0.028670531372547024,-0.026519285335190258,-0.02417531458861739,-0.02169718012813765,-0.019085658413269875,-0.016722884605401646,-0.014483424076288843,-0.012222504341259927,-0.009972864128176398,-0.007601251289670135,-0.005078076682664103,-0.0024028903726711947,0.00037324152952075793,0.003110666257025027,0.0057703744486797635,0.008280824488824756,0.010521913906459419,0.012388505985605236,0.013696465380947768,0.014222587123620432,0.014578185962785747,0.015689102402075515,0.01796415967921045,0.02213127231028124,0.02764706810483483,0.03329931191323647,0.03921421654212417,0.04513089193516896,0.051014012669160606,0.05737764507153937,0.06369649439963344,0.06943609935896775,0.07506058691919315,0.08099951098224811,0.08741430733822604,0.09477850555331542,0.10190481020162477,0.10689399871107937,0.1091856053501262,0.10766132411603944,0.1041399776725439,0.10211087544230203,0.10224895836773432,0.10627106457690552,0.11262098441973291,0.11743495664459846,0.12109046757547108,0.12296831978074575,0.12346617021775007,0.12495476666004442,0.12653089996651307,0.12750944252812635,0.12743167308695466,0.12453341049852873,0.11836703320010575,0.10842051977643817,0.09721447848464328,0.08920104724444443,0.08621956111900954,0.09140203604370982,0.1013515373121187,0.10909971566802314,0.11432791233065127,0.11458058057556612,0.11088090488193861,0.10795094819438023,0.1035391514993774,0.09617800265694874,0.08748046035638199,0.07756780901175553,0.0680036383932011,0.061451871818244255,0.05617838575141213,0.049649201225883635,0.04242565948340847,0.03394256688229158,0.025260162470513374,0.019047103102131743,0.015172758280185949,0.013938102010619322,0.014670174330051283,0.015172356975562193,0.015240148320170687,0.01422887970979379,0.012424148718035922,0.011273946556852514,0.010185025239005415,0.008811889285507449,0.007556869129175038,0.006319363541352384,0.005621676270349529,0.006281336342135646,0.007534793010354,0.008336923805374343,0.008640495003203824,0.007954639505220433,0.006607794988994048,0.005548258529352538,0.004528382908489337,0.0035121818745990616,0.002563094180247215,0.001333616576652712,4.116755916984518e-05,-0.0010519157544994552,-0.0019508262725947102,-0.0025004857301071997,-0.0025750607307921587,-0.002093579539766634,-0.000936971812506675,0.0009886924373123363,0.0038023479333584983,0.007628991622990113,0.011705618602976598,0.014897285364125405,0.016552827224522743,0.01564302676575594,0.013196456975358074,0.011220851987406787,0.009824632330513979,0.00978811291149523,0.01057741751620027,0.010490222820260027,0.010053676429526214,0.009468599350258837
16,-0.050039435115614275,-0.04942626910519069,-0.04832945587590159,-0.046904588969911315,-0.04535709423791955,-0.044068491133234695,-0.042872030354843396,-0.041454006090811894,-0.04002501990746027,-0.038679146057800054,-0.03733419059285053,-0.03601341835946226,-0.034609163152884925,-0.032937932213952824,-0.03125984142254311,-0.02993814202042379,-0.029031737988097182,-0.028726463944137713,-0.028943193900188246,-0.029401720564271577,-0.030195242918019283,-0.031342190522981685,-0.03282606098142256,-0.03475393701694209,-0.037039389375626,-0.0395723396447448,-0.04180428553339167,-0.04289947106835729,-0.04231220953940873,-0.03928046271220302,-0.034536738922088035,-0.02952425374295533,-0.02437301443426256,-0.01972632296056812,-0.016299736219130664,-0.014443180313014725,-0.01558305847547128,-0.021372911730331557,-0.029492608669979836,-0.03644413636437182,-0.04109203448122134,-0.040887555640276935,-0.03748356499054801,-0.034884548836508815,-0.032101283916421114,-0.02928309896349459,-0.02584148545713238,-0.019078558260710605,-0.009588035789132065,0.0021780711091288797,0.015099358498246146,0.02631466008099841,0.034736034072147606,0.03878349398213315,0.03975837107761009,0.04088586621999996,0.04201310507425662,0.043964477055901126,0.045095372002151635,0.04153041450396665,0.03330923257118682,0.019747221721236666,0.002428974327236476,-0.01457187271886968,-0.030743240187555244,-0.044683581117721145,-0.05598151842922453,-0.06596586217085151,-0.07272222527515475,-0.0744773071712422,-0.07283856563267363,-0.06948740960281473,-0.06544121177584764,-0.06295182535665565,-0.06095417168293275,-0.05713286840905068,-0.05276800294120371,-0.04841233415927093,-0.04424023046316969,-0.041550372985973624,-0.04021477811790046,-0.03994556113060978,-0.04049906904511748,-0.04092201303010233,-0.04061917710886956,-0.03878712519342295,-0.03606761009052179,-0.033846358422986125,-0.031927789761252295,-0.030544237997282436,-0.029256875414274554,-0.026790793417790424,-0.023295809454535726,-0.01874922362287176,-0.013994270184695384,-0.010834266208675013,-0.009874480027381808,-0.012121151452177759,-0.017412282668593924,-0.024666877323779125,-0.03458834794932457,-0.04755994646597472,-0.06137098035707638,-0.07335932963947496,-0.08134570749107208,-0.0820185486530172,-0.07480496055799328,-0.06013324209085649,-0.035075491772011275,0.002812205982926703,0.052406328723911336,0.11228549801357347,0.1818286621730722,0.25900719458943655,0.34068706961591305,0.42306863714534726,0.5008227462716066,0.5673251320703157,0.6136009186758323,0.6286051823987288,0.6004247315408329,0.5150200734481968,0.3899780778158511,0.2556861762470094,0.12056565582166111,0.004850405608011049,-0.09228820002718066,-0.18633159667375074,-0.2571102058143196,-0.28794253905544565,-0.2938286044146344,-0.2892251766569885,-0.2836550775165191,-0.2982426277910848,-0.31920608893438207,-0.31998935249402405,-0.30957519533134925,-0.28872618584493104,-0.25985949693246174,-0.23853754578153272,-0.22158044748480366,-0.20589818543227853,-0.19400452996358628,-0.18225111367248384,-0.17110003805613516,-0.16174009201637088,-0.1530596975578466,-0.14530312542778076,-0.13688733410975418,-0.12539282222147252,-0.11319443812605078,-0.10355641578777251,-0.09697558878802744,-0.09542125891106655,-0.09685680978098368,-0.09687653113834269,-0.09579769127037743,-0.09281288256758556,-0.08854584312534335,-0.08593459002995264,-0.0843012434734848,-0.08340316928702002,-0.08300106062511986,-0.08137925478984981,-0.07876391677001043,-0.07535361959155988,-0.07138574963997193,-0.06801066688952823,-0.06542054031327947,-0.06393513371398633,-0.06317020251173382,-0.06202169800926748,-0.06054439027063439,-0.058545629367866524,-0.05633413914905532,-0.054872896521128436,-0.05404949408131208,-0.05389800951161926,-0.0541671956992614,-0.05404564119056091,-0.053469556241554306,-0.05224883332680977,-0.05063016896405198,-0.049350316157209834,-0.04838732894571898,-0.047875903780821544,-0.04766066160599722,-0.04717177668895616,-0.04651721062114653,-0.04572090751622239,-0.044629264431108075,-0.043288868644328314,-0.04148559313070415,-0.038936468743052066,-0.03613055939659943,-0.033745388371548404,-0.03205025097766856,-0.031583040245826983,-0.031296996367784706,-0.02937591967942253,-0.025369042011389766,-0.018274179721981084,-0.009588186012621161,-0.002303946991706055,0.0031938669223116455,0.005671995753749367,0.004761072407770553,0.0013283277496140343,-0.006266219809890385,-0.01957777446101922,-0.034610702170309246,-0.0460371788099959,-0.0508485843830817,-0.04388283277501278,-0.030263921688467935,-0.019833326018081052,-0.012895041808000125,-0.012992888995698856,-0.016949026894449864,-0.015628172723297366,-0.010808179910315015,-0.0024459730723864225,0.00978078661230207,0.0220932674562349,0.036416659782166405,0.05484278485467287,0.07401985519893017,0.0909246439984039,0.10342176898459043,0.10759422992435137,0.10637592109556004,0.10535509842914569,0.10414846632895017,0.10440767393202183,0.10555950589473855,0.1041971132280416,0.10237343899286373,0.10178770846525416,0.10154743289388359,0.1019378380440998,0.10265942898393082,0.1026627874117087,0.10249156556846682,0.10277431192903093,0.102930744328329,0.10263557357762233,0.10199970991866437,0.10091706127474015,0.09931536032291031,0.09723578808374869,0.09529659234772737,0.0944338497895213,0.09531708674892976,0.09892270258866377,0.10366709024811592,0.10683743111990789,0.10780111681849606,0.10503690263578602,0.09991515400122801,0.0956684050309016,0.09202175020377243,0.08957585670522608,0.08800433865412619,0.08533387379108325,0.08237821371610703,0.07975549098650046,0.07705963757060837,0.07462717698321471,0.07215641158820017,0.06904627735769425,0.06571386631512481,0.06259042072916586,0.05958556240749312,0.056847631994340675,0.05422032518128658,0.05129067914318311,0.04809975630273422,0.04460702209121064,0.04092785880699317,0.03741731667119844,0.03410474736829051,0.03108554706155899,0.028700290297449853,0.02727097929063056,0.027212344315643924,0.02906179336749202,0.03211542178890422,0.03521409011361306,0.038054655119528,0.03989375736900292,0.04071796834382897,0.04105021133326274,0.040138035816354625,0.03734846749845427,0.03346211049995315,0.02935963029459794,0.025583612147024034,0.023208002127849004,0.021733040321478176,0.020028382810648587,0.01864540940248175,0.017762320383265702
17,0.006760254527620628,0.009252836444977774,0.012862282673890538,0.012821144941672765,0.009556183242475442,0.0027396452313713446,-0.006119829596555623,-0.012634567515313973,-0.016329223941372165,-0.015949158560271282,-0.01235989376930207,-0.008871149987249884,-0.004796244301942543,-0.00013403572753951893,0.004679854566592848,0.010578640610225171,0.016319714193278607,0.02037380266615449,0.023507927696616707,0.026385333281199377,0.028798657794643478,0.03115235055485649,0.0339700468216702,0.03771085870555141,0.04348705493973651,0.052678201351290956,0.06290308311460822,0.07051567402125392,0.07439958926037929,0.07213392438472008,0.0656847961444632,0.05957134683665792,0.05331175400307431,0.04773164874028239,0.04278695040753966,0.03631136967337707,0.029861021303752747,0.024923619816039914,0.021313199115705006,0.01976660471773225,0.0206571047584933,0.02395832857768479,0.027802256895283994,0.029150225078967112,0.02604545981087717,0.015558530035597396,0.0011997362470447066,-0.010552383826816475,-0.01896542759755788,-0.021176727383469245,-0.019262318180926715,-0.019222068150391097,-0.019612892179862614,-0.020325235336835706,-0.021700464756341926,-0.02144002135550625,-0.02104071517126106,-0.022269287510455975,-0.02391141654464232,-0.025303349997870907,-0.026290855614428635,-0.025921887729797203,-0.02490426099798885,-0.02453542973771336,-0.02450430563034317,-0.024885781575255183,-0.025495159348422336,-0.02548127464083395,-0.024915904464048025,-0.023778005411357047,-0.02210245928989341,-0.020336156788014204,-0.018396733492593832,-0.016242205953081495,-0.015608875794132896,-0.01877489118911385,-0.02731984001717771,-0.043572588504406276,-0.06267653919373618,-0.07660328083542331,-0.0827290363758197,-0.07579448549201105,-0.054927496574573714,-0.022628382709406786,0.026507945902066923,0.09716215392753307,0.18378691042660947,0.2795816486539907,0.38062798388900054,0.4790741901098363,0.5680949706786373,0.641109560958337,0.6848416533383204,0.6842875685975801,0.6443075988790721,0.5750343012031733,0.4729707540695181,0.34092601503154113,0.1925603533093123,0.04268734055226052,-0.08820635476789837,-0.17251465493288984,-0.222512473661202,-0.26292903435807086,-0.28512885999409915,-0.2917845309394491,-0.28814507365232617,-0.2702924809305676,-0.25549122408503344,-0.2653835541477596,-0.2837478474186528,-0.2889127359837533,-0.2820569375670762,-0.2537018269843523,-0.2141681562027965,-0.1881669030094672,-0.17180343444846183,-0.16603374691569234,-0.1685701239848248,-0.16473944813449654,-0.15585805458539967,-0.14161098038459607,-0.12308864350491211,-0.10877999578957921,-0.0968229596255507,-0.08596912869886811,-0.07683474246783843,-0.06628922800421967,-0.05564395935311542,-0.046726418716890296,-0.03872606806328498,-0.03199809746957579,-0.026726257435666975,-0.022526567778367732,-0.019906787975526388,-0.019389549922976316,-0.021086405904645,-0.02531059936286903,-0.03080813804701403,-0.03555891807274185,-0.03861568175985554,-0.03839510065524108,-0.03613780977208157,-0.03456795145812859,-0.033514857203534774,-0.033698955157791914,-0.034744887173526216,-0.03484372580771274,-0.03488662086425356,-0.03557139619284124,-0.03639861235908349,-0.03748738165796773,-0.03856015705625379,-0.03898631299039834,-0.03916162147284021,-0.03958794211962171,-0.04008318736425465,-0.04069303791549093,-0.04121981942993291,-0.04115739349098195,-0.04045535831978065,-0.03898342384936544,-0.036526659696975224,-0.03301024747341709,-0.028139019615704173,-0.021575960348748334,-0.014490810815673586,-0.008594051108565788,-0.004771761025194472,-0.004508353912251856,-0.006788653314399461,-0.00935600128235848,-0.012497130785791134,-0.015739570748984178,-0.018023522963633704,-0.01887983729452555,-0.016425423305329607,-0.008316380835177014,0.0026387699341281923,0.012183195128400293,0.019289248868090966,0.02119506751446435,0.019761310663059913,0.019637863890200995,0.019666396127148697,0.019918862964724657,0.020868762885075477,0.02104418463926706,0.0219748434880089,0.025499577774143384,0.02997035635457814,0.03370772017414417,0.03632074865317163,0.03639660249453623,0.03479930256118088,0.03353100879721003,0.031965863412856656,0.03003501449389152,0.028894401683801075,0.029284993263864623,0.032590042953734966,0.040741280903253026,0.051367903557539514,0.060720932617653184,0.06801416860223507,0.07103552195330487,0.07131875055245343,0.0728074982144686,0.07460986467033737,0.0768585796811754,0.07952464195562133,0.08073920618716225,0.08147544833736918,0.08276939301953085,0.08386924108095521,0.0845672035226477,0.08469758603385538,0.08362420050212879,0.0822562996309729,0.081976478801757,0.08302527201962187,0.08609599944920515,0.09049207174608838,0.09458068609096426,0.09834568116558187,0.1013104859437886,0.10345647239749135,0.105518455604627,0.10681332526095873,0.10671671701833797,0.10611595296404167,0.1059433594554812,0.10679144685470021,0.10979282613480651,0.11357737507436046,0.11574718131229034,0.11607836085042399,0.1135725623311953,0.10931517419612205,0.10597368762006137,0.10341292169120574,0.10213920300439285,0.10162419672528507,0.09986750545985339,0.09722925276876124,0.093758772768642,0.0895775558867456,0.08579532435405265,0.08219294796340154,0.0785909739771465,0.07491893134542467,0.0705509507463691,0.0654538276312413,0.05957550099298755,0.053417786732756385,0.048000921715160155,0.0436477031872981,0.04092241609673837,0.039321325396846525,0.03764069939410882,0.03593597925991672,0.033915699667850095,0.03193120936861051,0.031050831225988593,0.03108972598504451,0.032035597476620936,0.033810441527835695,0.035805971051023046,0.03810174337079692,0.040738454901582906,0.042985454183725076,0.04408334809051785,0.04334121791301569,0.039763635932792155,0.03456426604876214,0.029835452403337705,0.02600408232464561,0.02426183748480544,0.024103836137736607,0.023828904189986858,0.024241975142529192,0.025739940836921545,0.02756615107081516,0.029421354821427284,0.030428131004349594,0.0292314683883597,0.027013993808202984,0.025612688344596363,0.02503299073004813,0.026014044950579376,0.027955021549977768,0.02914899741988843,0.0299883031454332,0.030523231580415613,0.03066994665885618,0.031097470932969988,0.031480517512434275,0.03144602215677672,0.03120970323840716,0.03076522366087287,0.030152960019724045,0.029565304001206036
