,0,1,2,3,4,5,6,7,8,9,10,11,12,13,14,15,16,17,18,19,20,21,22,23,24,25,26,27,28,29,30,31,32,33,34,35,36,37,38,39,40,41,42,43,44,45,46,47,48,49,50,51,52,53,54,55,56,57,58,59,60,61,62,63,64,65,66,67,68,69,70,71,72,73,74,75,76,77,78,79,80,81,82,83,84,85,86,87,88,89,90,91,92,93,94,95,96,97,98,99,100,101,102,103,104,105,106,107,108,109,110,111,112,113,114,115,116,117,118,119,120,121,122,123,124,125,126,127,128,129,130,131,132,133,134,135,136,137,138,139,140,141,142,143,144,145,146,147,148,149,150,151,152,153,154,155,156,157,158,159,160,161,162,163,164,165,166,167,168,169,170,171,172,173,174,175,176,177,178,179,180,181,182,183,184,185,186,187,188,189,190,191,192,193,194,195,196,197,198,199,200,201,202,203,204,205,206,207,208,209,210,211,212,213,214,215,216,217,218,219,220,221,222,223,224,225,226,227,228,229,230,231,232,233,234,235,236,237,238,239,240,241,242,243,244,245,246,247,248,249,250,251,252,253,254,255,256,257,258,259,260,261,262,263,264,265,266,267,268,269,270,271,272,273,274,275,276,277,278,279,280,281,282,283,284,285,286,287,288,289,290,291,292,293,294,295,296,297,298,299,300,301
0,-0.10153248184882636,-0.1038065392229342,-0.08697617741495209,-0.07526482929867664,-0.06867249487410784,-0.060708524864802375,-0.08382495404379045,-0.09861341535983836,-0.10507390881294612,-0.11376587452952101,-0.10422970252959883,-0.09957774531033532,-0.0998100028717305,-0.09873353902698803,-0.0841917726448922,-0.07325802320352096,-0.06593229070287429,-0.05763979297668267,-0.051805087325509015,-0.045311818272670695,-0.03815998581816768,-0.031184614895305413,-0.010655785817263428,0.006241405093449137,0.01950695783683228,0.033745605094353384,-0.014845446031562924,-0.04660133021494616,-0.06152204745579633,-0.08095373408334137,-0.05658051354965869,-0.04394478251434728,-0.04304654097740714,-0.03900324860820964,0.007414746731335391,0.042478474630467104,0.0661879350891855,0.09293976233920964,0.060799675611622736,0.04443962967505985,0.043859624529520996,0.03905137019749709,0.014268985078197618,-0.005161347827137737,-0.01923962851850898,-0.03475198727846111,-0.03381921620670059,-0.03729290439277244,-0.04517305183667666,-0.051872492080964054,-0.08203007171763478,-0.10590206184817968,-0.12348846247259879,-0.14275908172913784,-0.10763813721680837,-0.08709136829141315,-0.08111877495295212,-0.0712410430356227,-0.0998937542388324,-0.11822226432388032,-0.12622657329076648,-0.13699724360976062,-0.11330175277853896,-0.09884144199371857,-0.09361631125529943,-0.08591662148149105,-0.06954558418932932,-0.055498027462,-0.04377395129950307,-0.031427300396029895,-0.061300590682323366,-0.07986108182232939,-0.08710877381604792,-0.09738772120514969,-0.12841486215101805,-0.1538825413889462,-0.17379075891893406,-0.1951886297239163,-0.17097804638235342,-0.15898821149738923,-0.15921912506902366,-0.15617549896080862,0.012655675792964047,0.13706421077202408,0.21705010597637142,0.3089390116340117,0.584095448535569,0.8101454984414731,0.9870891613517243,1.1771908410006708,1.2578643825513116,1.367859105334635,1.5071750093506404,1.6386343265342225,1.4727505486758088,1.3865396130088685,1.3800015195334012,1.352115152334037,1.0816540549093954,0.8761906605528142,0.7357249692642938,0.5778431959288085,0.48353712628399403,0.37219599817702403,0.24381981160789845,0.12000815519672445,0.1443641668397785,0.12901877148329954,0.07397196912728746,0.029563126715179616,-0.003923255699125798,-0.040336302449203616,-0.07967601353505384,-0.11823152727561687,-0.09226800959996406,-0.08359231428872453,-0.09220444134189826,-0.09618431035363478,-0.11373140000685034,-0.1276431638456467,-0.13791960187002394,-0.14917012251059883,-0.16247878061782636,-0.17523596245295212,-0.187441668015976,-0.19979514120075453,-0.18797780908928746,-0.1826370247373593,-0.18377278814497006,-0.18317316581067078,-0.15031153386684432,-0.12609448134409584,-0.11052200824242522,-0.0926332270659701,-0.07019459734205385,-0.04897509586211375,-0.02897472262614977,-0.008647684961742409,-0.060552563220323395,-0.0931029579395869,-0.10629886911953293,-0.12468079853376053,-0.1251538010428084,-0.1304254860534072,-0.1404958535655569,-0.14928041797668268,-0.14239968013959284,-0.13971644738910183,-0.14123071972520962,-0.14162027396313775,-0.1652453864914432,-0.1826445499401558,-0.19381776430927547,-0.20665921670638937,-0.15627926956261073,-0.12283944537017959,-0.10633974412909597,-0.08530095062351488,-0.1813400742019942,-0.2460082644462816,-0.27930552135637704,-0.32100859451917985,-0.22379599230159872,-0.16380573311821547,-0.1410378169690301,-0.10829620406343717,-0.11292395216691624,-0.10753861016634737,-0.09214017806173061,-0.07942474536423354,-0.08464379056082635,-0.08505730688902398,-0.08066529434882637,-0.07756091938811971,-0.10465300929117967,-0.1236539808197186,-0.1345638339737365,-0.1476416957620719,-0.13283550674788025,-0.12550082662793416,-0.12563765540223354,-0.1237724994020779,-0.0907226778315329,-0.06602876221680837,-0.04969075255790429,-0.031113784646107718,-0.0852729287085091,-0.11994249030684441,-0.13512246944111367,-0.1555246664574492,-0.09057870893948494,-0.048501720504472975,-0.029293701152413303,-0.003957960002844247,-0.050119123716006055,-0.07712274950987431,-0.08496883738444905,-0.09794817207346708,-0.09145191328701797,-0.09017412404443712,-0.09411480434572454,-0.09665719994700606,-0.06680683191552095,-0.04563607874004788,-0.03314494042058688,-0.018328106309844272,-0.03969316808447908,-0.051363320076000044,-0.05333856228440717,-0.057911547739892245,-0.04525533406188621,-0.03721567037793413,-0.03379255668803598,-0.029132442155413163,-0.043325529696515014,-0.05246691696722157,-0.056556603967532836,-0.06199988997570061,-0.03684021554027542,-0.019880579641712554,-0.011120982280012022,-0.00016419121445514304,0.019132427414952077,0.03619439598361078,0.05102171449152097,0.06644780567857489,0.07696469740370664,0.08879700516014374,0.10194472894788617,0.1147399880723294,0.09215921564807183,0.07905742230870659,0.0754346080542336,0.06927190900889224,0.06599454117335331,0.06194405117025149,0.0571204389995868,0.05250398428937119,0.07569838817237125,0.09144089495450303,0.0997315046357665,0.11001884412728748,0.12226639911979051,0.13398871595181444,0.14518579462335926,0.15652361043583846,0.11163540240810178,0.08181291206196403,0.06705613939742516,0.048262519846706584,0.02757529095776046,0.007395453161772442,-0.012276993541257476,-0.03208539527789226,-0.0336979908508683,-0.04018613799102994,-0.051549836698377184,-0.061607135300640756,-0.0318446330857724,-0.01275181434262271,-0.004328679071191677,0.006953389269982067,-0.01835662940052699,-0.03386182790688627,-0.03956220624909577,-0.04788977823622159,-0.03454432141389221,-0.027006135158592813,-0.025275219470323386,-0.021988250323389254,-0.011707522409652685,-0.0033007665095389147,0.0032320173769520583,0.010266930551131785,-0.019938004454425194,-0.04016455221396411,-0.05041271272748496,-0.06333457404534137,-0.028912336987514903,-0.00717591285583229,0.0018746983497064653,0.014324462884137766,-0.031094749563772523,-0.06100801636244915,-0.07541533751189214,-0.09397746427592817,-0.08710841965761075,-0.08705363687377243,-0.09381311592441319,-0.09874671901949107,-0.09934941808447909,-0.10111257938682638,-0.10403620292653294,-0.10664888154689228,-0.08046711832566465,-0.06200080254239519,-0.051249934197083874,-0.03843171794152691,-0.06372037232925751,-0.07879832150204194,-0.08366556545988021,-0.09126875963421557
1,-0.13224925536113172,-0.1302331284107126,-0.1147094615170359,-0.1028051290428862,-0.09452013098826352,-0.08526533519879041,-0.10189258674723359,-0.111584764613018,-0.11434186879614366,-0.11895722037198808,-0.0852657015936826,-0.06183847779133529,-0.04867554896494618,-0.03276231058887423,-0.047102473621006,-0.05333626217751501,-0.05146367625840123,-0.051763186833574844,-0.06651286071037127,-0.07739062500000002,-0.08439647970246109,-0.09243980945197006,-0.11490987434817973,-0.13351430721241325,-0.14825310804467062,-0.1640277018581319,-0.1140460149414491,-0.08168367034368262,-0.06694066806483241,-0.047476577240461094,-0.04339070949307189,-0.03518425929117966,-0.022857226634784428,-0.011634300719419136,-0.010038151378994001,-0.005862515029598803,0.0008926083287664624,0.006956560226191627,0.00859733552217965,0.011423297416502994,0.015434445909161655,0.01912802460991618,0.01600778696877247,0.014713305913814381,0.015244581445041913,0.015286646973425203,-0.02031205701142523,-0.046360845587580905,-0.06285971875504183,-0.08191748404404806,-0.0036044303602274473,0.04861819101346716,0.07475038007703579,0.10787347940828154,0.05437407953391614,0.024085108368059816,0.017006565910712562,0.0037088078249401593,-0.03437818425098207,-0.06582292109825752,-0.09062540271688618,-0.11720767125995216,-0.10857869670302991,-0.10938454629924547,-0.11962522004859882,-0.12733784028538925,-0.1391090233455689,-0.14979271777479047,-0.15938892357305387,-0.16927652107176056,-0.1418787976713892,-0.12447164589546107,-0.11705506574397614,-0.10696151999379638,-0.15067568847016777,-0.17997212337297017,-0.1948508247022035,-0.2135927460991618,-0.16204294071476644,-0.12932774675602393,-0.11544716422293419,-0.09651986276858682,-0.10531142779223956,-0.10667574492800605,-0.1006128141758863,-0.09654000849731142,-0.0917379163007964,-0.08713123583781435,-0.08271996710836528,-0.07825633796272449,-0.12965226966032348,-0.16608067714041924,-0.18754156040301168,-0.21301297969237745,-0.08794524525139527,-0.003214355481724475,0.041179689616634985,0.09638195966989195,0.340257235401587,0.5335777316281918,0.6763434483497067,0.8326552774131438,1.0378515419767849,1.229949261525695,1.408948436059874,1.591457355152773,1.5205880908732279,1.5176113062079941,1.582527001157072,1.6292509610213486,1.3383603641603776,1.1379333151269282,1.0279698139210005,0.8937666781302341,0.7186245372629523,0.5544519697448563,0.4012489755759464,0.24510669308680819,0.2568301432050719,0.22357410583432347,0.14533858097456293,0.07915527346344897,0.0960555730897785,0.09069368727936536,0.0630696160322096,0.04141067939458094,-0.025433306452796463,-0.08016999485446115,-0.12279938581041314,-0.16867291733946724,-0.13397162036423352,-0.12086028361699994,-0.1293389070977665,-0.13203251817082035,-0.15314804162418566,-0.16932742853220967,-0.18057067889489223,-0.1931365630586288,-0.19350158745295212,-0.19713582236945512,-0.20403926780813775,-0.21006673092751504,-0.20853331242645515,-0.2090258260496587,-0.21154427179712576,-0.21351987066797615,-0.18315580595310776,-0.16145712797952694,-0.14842383674723364,-0.133068662135509,-0.16922033600726358,-0.1915707914231977,-0.20012002838331133,-0.21236729068322763,-0.18127326311847305,-0.16179249917188027,-0.1539249988434492,-0.142945733907042,-0.15587943623565276,-0.1624056782969701,-0.162524460090994,-0.1643601156891737,-0.14432442550382632,-0.13014914475855688,-0.12183427345336534,-0.1119491101713892,-0.14145310881385037,-0.16040281332811984,-0.1687982237141976,-0.18002164868860485,-0.1629849413076467,-0.15352051356930538,-0.15162836547358086,-0.14770723116275453,-0.13983036325367068,-0.13301343096771262,-0.1272564343048803,-0.12121542874780246,-0.10535207919088023,-0.09212061877649699,-0.08152104750465275,-0.07021626366249693,-0.11433938602096415,-0.1436106456748264,-0.15803004262408366,-0.17642898419113776,-0.11366472158747895,-0.07264807399648497,-0.05337904141815585,-0.028282752959880236,-0.06449372244480847,-0.0842774616736887,-0.08763397064652093,-0.09539214270034133,-0.08744724226230535,-0.08370996741714966,-0.08418031816487427,-0.0835232390329341,-0.123393096597042,-0.15240379420173658,-0.17055533184701788,-0.1916165726339043,-0.11778377160117956,-0.06937775244054482,-0.04639851515200008,-0.016606192194706527,-0.04441862889579644,-0.05679591676623359,-0.053738055806017974,-0.054816030510029964,-0.05424979469186229,-0.054124123755299416,-0.05443901770034132,-0.05463586264114372,-0.061145807320209626,-0.06596416202267069,-0.0690909267485269,-0.07267095164253898,-0.03341019257199397,-0.0056285869678682245,0.010673865169838266,0.030052147208664715,0.011321335090993985,0.0028018239768382927,0.004493613866197636,0.0034492938979940125,0.012535561470892236,0.01890734629329943,0.02256464836521558,0.026949293897994026,0.03363310769659283,0.03970086121510181,0.045152554453520954,0.05076932054647906,0.047637299798107796,0.046849509418622766,0.04840594940802398,0.049334254763209615,0.04688525211211377,0.04534119641389222,0.04470208766854494,0.043820499117982005,0.07339771010559885,0.09481351035453899,0.10806789986480236,0.1235091327915929,0.10176719771249104,0.08998846247259881,0.0881729270719162,0.08368776032028748,0.0738754508879641,0.06549054503489822,0.05853304276108984,0.05119306885094613,0.03940336634099399,0.028805965015898195,0.019400864875658737,0.009676288595802354,0.039599978996742544,0.05889994835926951,0.06757619668338324,0.07909906248035334,0.07655898423043116,0.07778706048107782,0.08278329123229333,0.08676984802812575,0.08490589979125748,0.08460958965321559,0.08588091761400006,0.08673219821217976,0.05382491521779041,0.029963212075664644,0.015147088785802452,-0.002092790320545001,0.04223264120075453,0.07006169745760484,0.08139437845000594,0.09714724987255696,0.0795784712590479,0.07093820186317365,0.07122644168493418,0.06912229467221565,0.05847241067017367,0.0501123499931497,0.044042112641143716,0.03735831897838921,0.0389602061559042,0.038341951843526956,0.035503556041257475,0.03326004535828745,0.015275501372143695,0.0015087545476167507,-0.008040195115293388,-0.01871930012149703,-0.0071622255175269175,-0.00156331728285626,-0.0019225754174850558,-0.0006853476850897889,-0.024549949226682664,-0.0416885358857665,-0.0521011076623413,-0.0643159096949641
2,-0.054196709385275474,-0.05678656248035334,-0.04599015455446706,-0.03878058445882034,-0.035157852193413185,-0.030574029628011937,-0.046117092216161684,-0.056267172181263495,-0.061024269523317354,-0.06722641220401199,-0.06958067858610781,-0.07296598031498804,-0.07738231739065268,-0.0815223893777785,-0.056633083611053875,-0.03952217617025148,-0.030189667055371308,-0.018772942390652685,-0.028684004366275457,-0.032880303135275464,-0.03136183869765271,-0.03137464044617962,-0.04817478958561677,-0.060476782548598826,-0.06828061933512575,-0.07728973343656291,-0.08636223852316173,-0.09541775804647908,-0.1044562920065149,-0.11349937723451502,-0.07639254936692211,-0.05165155344405986,-0.039276389465928235,-0.023587810804467063,-0.03749682904379045,-0.04347519509564672,-0.04152290896003586,-0.04169563467350894,-0.045104522752688614,-0.04764628373940122,-0.04932091763364674,-0.051227897532053965,-0.02650223430397603,-0.008912766293946084,0.0015405064980358743,0.013905917035724628,-0.025773782313359306,-0.05150803649829346,-0.06329684551907783,-0.07882232530968863,-0.08602660701052098,-0.09546054701956887,-0.10712414533683229,-0.11819030851101202,-0.0974793027040898,-0.08528296366340118,-0.08160129138894615,-0.0756381210306587,-0.07784187669553297,-0.07785731112785634,-0.07568442432762879,-0.07409789643444314,-0.07309612920458085,-0.07193767582721557,-0.07062253630234731,-0.06934938070416763,-0.09841054528474256,-0.11934365327047311,-0.13214870466135922,-0.14713166225286836,-0.08633423751874243,-0.04584210503089213,-0.025655264789317483,-2.7637888275342665e-05,-0.06728390676933542,-0.10965201078572465,-0.12713194993744303,-0.1512806527657426,-0.13366418581907197,-0.1272386623853533,-0.13200408246458667,-0.1337708982669822,-0.023827997343862355,0.05618237519594617,0.10626021935244336,0.16435846031667045,0.37849611783553905,0.5508231397011679,0.6813395259135568,0.8230590381842635,1.0277735604317009,1.215608620628683,1.3865642187752094,1.5620426551468272,1.4308759391562398,1.3818745441040239,1.4150384699901795,1.4261862644850545,1.1667491856085208,0.979815105035934,0.8653840227672935,0.7315258206542756,0.5883293651355868,0.4476350870756647,0.3094429864745093,0.17058042944395801,0.17534374460461682,0.14162262329942524,0.0694170655283833,0.007523381429532815,0.02032695750840122,0.013115463045832387,-0.014111101958173682,-0.03597464497414969,-0.0823469328052935,-0.1221521222557126,-0.15539021332540703,-0.1903879531028324,-0.14939481315182032,-0.12876336805617364,-0.1284936178158923,-0.12276796788258688,-0.12186411722301199,-0.11966826934197605,-0.11618042423947904,-0.11303876874909577,-0.13164781618020363,-0.14442878032868867,-0.1513816611945509,-0.15989617226941327,-0.14156457321722157,-0.130426367693491,-0.12648155569822156,-0.1206092797161617,-0.10584356087801194,-0.09346083287108382,-0.08346109569537734,-0.07282283805087425,-0.10385016956441921,-0.12371324011089826,-0.1324120496903114,-0.14410231397994017,-0.15630612465696408,-0.16837233099420956,-0.1803009329916766,-0.1922664059608623,-0.19061256464636528,-0.19260800759564675,-0.1982527348087066,-0.20291963925033543,-0.16466956304402391,-0.13791905714391017,-0.12266812154999412,-0.10433588537922746,-0.16116077467841927,-0.19784737290249116,-0.21439568005144308,-0.2363400260309163,-0.18798520846900593,-0.15846699500659275,-0.14778538564367671,-0.13205652342415564,-0.17873482839197016,-0.20869118331002406,-0.2219255881783173,-0.23964062605831754,-0.17378675054402393,-0.13032509788607777,-0.10925566808447909,-0.08218626025178438,-0.09341978704231738,-0.09439007343281441,-0.0850971194232755,-0.07855419239065269,-0.09225171221771261,-0.10052582065427548,-0.10337651770034134,-0.10768041344871264,-0.1052808246432635,-0.10467742911048505,-0.10587022685037728,-0.1065817360534072,-0.12038246084556893,-0.13067594089106593,-0.1374621761898982,-0.14518817488625757,-0.11879877383569462,-0.10155056659678444,-0.09344355316952702,-0.08288716424258089,-0.07987414389114371,-0.07483988402168862,-0.06778438463421559,-0.06127047474330533,-0.09113416371820363,-0.11125050445442519,-0.12161949695197005,-0.13460028353841325,-0.11037521609890419,-0.09611942719935929,-0.0918329168397785,-0.08487514634629342,-0.09950957038478446,-0.10835838333561681,-0.11142158519879039,-0.11603503688062272,-0.1313142068223294,-0.14373550616960482,-0.15329893492244911,-0.16362812779314387,-0.12943009811627548,-0.10716310176222754,-0.096827138731,-0.08329426495605394,-0.04976410874534728,-0.021592208214119744,0.0012214366376286697,0.025470821771532988,0.0057265531549221356,-0.002229651467143743,0.001602207905335349,0.002275465050149722,-0.0034688197526107916,-0.007493529373125761,-0.009798663811395183,-0.0125645570310719,0.014129661679634758,0.03293006718966471,0.043836659499017945,0.05685839268069465,0.05088376928807785,0.04999920429867664,0.05420469771249102,0.05704631408773654,0.060636973674904227,0.06402692773834134,0.0672161762780479,0.07045920370075454,0.0477382129430778,0.03197425988910177,0.023167344538826455,0.012496296554131665,0.07439208479681446,0.11684364787508988,0.13985098578895797,0.16806838813307795,0.13049663741779635,0.11055303713550893,0.10823758728621569,0.10119868876434732,0.14945183380195826,0.18288952041994025,0.2015117486182933,0.2241037669356828,0.13282925511128735,0.07206518808331724,0.04181156585177254,0.0033826945763113098,0.02369451535298805,0.02826681513144916,0.017099593911694626,0.010149764632664673,0.0036273094519700348,-0.003009660273239529,-0.00976114454296402,-0.01648194473296412,0.013180182609347328,0.03309353390109584,0.0432581091422814,0.05603486105340718,0.06352068795083235,0.07242421393289224,0.0827454389995868,0.09268679274144319,0.08028647259189824,0.07387258591911379,0.0734451327230898,0.07141361951142523,0.023625773061472996,-0.011901700848670716,-0.035168802219005924,-0.061721060510287536,-0.0177938867120778,0.007248380174748572,0.013405740150191586,0.024623295681676698,-0.0008124838138503371,-0.016427031788982086,-0.022220348243718543,-0.030645255753024004,-0.0027919986671496554,0.015340553512562916,0.023752400786113712,0.03476890308913181,-0.007514221273652743,-0.035515753714455145,-0.04923569423327539,-0.0667823757742216,-0.04686097863910177,-0.03697912292717961,-0.0371368086384551,-0.03460440733300599
3,0.018668256047203537,0.018014627940233553,-0.011244860455485069,-0.03283943168803597,-0.04676908575741916,-0.0627525481907246,-0.06696087169708387,-0.07432433416968265,-0.08484293560852094,-0.09451612010934737,-0.0733806601850898,-0.060500351654431114,-0.05587519451737129,-0.04903807623099999,-0.05768361783553895,-0.06218059322562279,-0.06252900240125148,-0.06398901654379047,-0.040541227051365245,-0.023767463428161672,-0.013667725674179731,-0.0017796880782754336,-0.02140211291063475,-0.0325813347822096,-0.03531735369299998,-0.040315722018664624,-0.06893190022244317,-0.0912197053423893,-0.10717913737850299,-0.12483425187183247,-0.08966872562532335,-0.06865644740874846,-0.06179741722210774,-0.0511460356555688,-0.055292028148071826,-0.05547307621135332,-0.05168917984541327,-0.04896768713731741,-0.05927857415313778,-0.06609744554647906,-0.06942430131734124,-0.07368683985420357,-0.07041757826956886,-0.06916645644504192,-0.06993347438062274,-0.07015973339726955,-0.027772892773886195,0.003195802213964108,0.022746351566281367,0.04535638382070065,0.022097226943568825,0.011128682251706547,0.012450749745113822,0.010479557628994007,0.03226478218591622,0.047684494080239566,0.05673869331196404,0.06749852652104196,0.0450205391005329,0.031448598875892186,0.02678270584711981,0.01973044466446105,0.03919091509034733,0.05154732049258086,0.056799660871161645,0.06395552973580838,0.07921631973296414,0.09230540265794615,0.10322277851075445,0.11472206151974865,0.049802555320934104,0.005359401976916107,-0.018607398512305348,-0.048060821212904246,-0.050004236322898236,-0.05931893575056886,-0.07600491949591615,-0.09071577356116177,-0.061392028726347275,-0.0438673191058323,-0.03814164469961684,-0.02925442833626344,-0.06165321854901204,-0.0829894566409881,-0.0932631426121916,-0.10650103049038331,-0.08848529691177247,-0.07884394596305988,-0.07757697764424552,-0.07406610026264071,-0.06703104469186227,-0.06094028982085629,-0.055793835649622744,-0.05039435686847303,-0.048870008247467026,-0.04630732162948503,-0.04270629701452704,-0.03938349422732932,-0.07737280452202402,-0.10429256747880243,-0.12014278309766455,-0.1389590749862994,-0.14145330188553307,-0.1483210129174851,-0.15956220808215543,-0.1696315317053536,0.011716386981568842,0.14177421017410194,0.2205419378722457,0.3130528052378263,0.5310919047307667,0.7154958157978745,0.8662645384391497,1.0260457826563956,1.1513499707099826,1.2858922581200243,1.429672644886521,1.570977690390857,1.5005476958451802,1.4868519342902755,1.5298904057261433,1.5577269852489346,1.2149459288117843,0.9714715686308322,0.8273039047060782,0.6565270917164732,0.5858770987484492,0.48839820521494626,0.3640904111159643,0.24697139925731734,0.22648708032778447,0.18010957346706596,0.10783887867516181,0.04250624267888617,0.043865730207191624,0.027355117095568898,-0.007025596655982014,-0.03661803137240127,-0.023839678713550895,-0.022414544314574826,-0.03234262817547306,-0.0392286263721437,-0.055419816523239546,-0.06911768800473059,-0.08032224081661679,-0.09219487635249705,-0.09751597520874256,-0.10459255302747907,-0.11342460980870661,-0.12178628741960484,-0.11716393233985631,-0.11602063833406588,-0.11835640540223355,-0.11975996086521562,-0.11816165381449703,-0.1173676934001138,-0.1173780796220659,-0.11717294181237725,-0.12153324806922756,-0.12467024727535933,-0.1265839394307725,-0.128825415722521,-0.13039873809197608,-0.13215109176532938,-0.13408247674258086,-0.13596589042653298,-0.1414231215892875,-0.14592275124470064,-0.14946477939277247,-0.1532633960914072,-0.14808613741275453,-0.1453139572928084,-0.14494685573156885,-0.14393531531279047,-0.1147776001205928,-0.09316162972895806,-0.07908740413788626,-0.062992374117982,-0.07532175900204195,-0.08003484486725754,-0.07713163171362875,-0.07626919973141326,-0.047294612660790394,-0.02585265484360478,-0.011943326279856387,0.003984364209233558,-0.013808148257419163,-0.02256535957346708,-0.022287269738910195,-0.02443018155102986,-0.08299268116365878,-0.1264375977878444,-0.15476493142358677,-0.187143009212593,-0.1256898202427365,-0.08937864342570652,-0.07820947876150305,-0.06030353224485624,-0.08178368277104196,-0.0927103604015869,-0.09308356513649099,-0.09628456441112579,-0.0658599830250239,-0.04444534882199398,-0.03204066180203605,-0.0172217667105269,-0.0675470425404552,-0.10041699038038931,-0.11583161023032923,-0.13592337111880845,-0.09304138274273649,-0.06703315962646104,-0.05789870176998209,-0.044242932138868325,-0.014488928101023932,0.010951567027970073,0.0320785532481137,0.054361340696928225,0.01574979074216763,-0.006545170681676698,-0.012523543574604765,-0.022873933187622764,-0.027982756620437158,-0.034496053478311396,-0.042413823761245466,-0.04995526652414378,-0.011602905818814336,0.014452247309610821,0.028210192861131692,0.04526316525204195,0.03669968977380838,0.03500012081506586,0.04016445837581437,0.04348961772774254,0.03750879876900002,0.03402150918338325,0.03302774897089224,0.03136584957656889,0.014112125994856242,0.0010362191126826016,-0.007861871069952026,-0.017879403863353387,0.04358331126990426,0.08589295169643718,0.10904951741624541,0.1373381340362935,0.10947520588641316,0.09665803881139519,0.09888663281123955,0.09708372728156295,0.07103411101915565,0.05148138131669458,0.038425538174179735,0.02362885952461068,0.08886156614091027,0.13265046360446117,0.15499555191526337,0.18308649157119172,0.14919039050007785,0.13190366693297004,0.1312263208698683,0.12609850551778448,0.09722726436317364,0.07471805497789819,0.05857087736195814,0.04071899847120351,0.08021959531808986,0.10435264260714976,0.11311814033838319,0.12600136056328148,0.10184626476010777,0.08761555582566465,0.08330923375995214,0.07634368024738923,0.08210834845931138,0.08446196404068865,0.08340452699152097,0.08326107874004787,0.10261712169708385,0.11674829173198205,0.1256545888447425,0.13596088643754498,0.11775290524053891,0.10718530201801797,0.1042580767699821,0.0992836184138144,0.10058766985355691,0.1002093996638144,0.09814880784458685,0.09653899274738922,0.10540078038258686,0.11145671052217966,0.1147067831661676,0.11870868306017968,0.08796390314807184,0.06652946802967664,0.054405377704994054,0.03978658801158087,0.02397905172888024,0.008490039134784433,-0.006680449770706552,-0.02193628684132938
4,-0.06981891561472457,-0.06978549171828147,-0.06520224875529941,-0.0618381261369042,-0.059693123863095825,-0.057221459277479056,-0.05759099505544912,-0.05719923349046109,-0.05604617458251496,-0.055097104682814396,-0.03258857307517361,-0.01585688182142513,-0.004902030921568938,0.007600719685916212,-0.025064612043221607,-0.04562719258659884,-0.05408702194421549,-0.06578977370825151,-0.055636518837245505,-0.05133956329386827,-0.05289890707811981,-0.052889060186898304,-0.029066125793868275,-0.0116238889662395,-0.00056234970401198,0.012208892318012038,-0.004563000504730549,-0.013418834203934164,-0.014358608779598804,-0.017419485004652735,0.0008447858857664921,0.0133950008281198,0.02023115982240719,0.0285983954934851,0.004435382561395181,-0.011011176527892259,-0.017741281774377223,-0.02680695378890427,0.010313825686976093,0.035058982784742565,0.047428517504395154,0.06311409024609589,0.02353962485795205,-0.0012279579395868823,-0.011188658146520918,-0.025116850586029985,-0.003212335830964036,0.009090833968694655,0.011792658812946093,0.017067156284251535,-0.006729605800071907,-0.02273674736350903,-0.030954268406059835,-0.04125901197652703,0.0011506850987485391,0.029435590373538982,0.04359570384784431,0.06154054387834737,0.06705189623345517,0.07589479157028746,0.08806922988884419,0.09935098395589828,0.029577260991754412,-0.018477712359760545,-0.0448139360986466,-0.07696968125685033,-0.07232202076801797,-0.07753580310102395,-0.09261102825586827,-0.10504388777039532,-0.07661408774208983,-0.059133404338874235,-0.05260183756074853,-0.04313646382509581,-0.04554517212736529,-0.04477222973671262,-0.04081763665313779,-0.037715564303329376,-0.03412956784148502,-0.03067323845465865,-0.027346576142850257,-0.023985169643005892,-0.0601235171759641,-0.08567793751460488,-0.1006484306589282,-0.11845487854771872,-0.08663164105870659,-0.06810663768728738,-0.06287986843346108,-0.05408984808706575,-0.10997627520279649,-0.1485327004517366,-0.1697591238338861,-0.19562910722107205,-0.135231442782545,-0.09794912491185027,-0.0837821536089878,-0.06342144386050917,0.08324391734955085,0.19606604920018572,0.2750449516913954,0.36309212015872433,0.6203192870176291,0.8322148099320125,0.9987786889018744,1.177489145258246,1.2785454575915094,1.4004091351046948,1.5430801777978023,1.6801759037943302,1.5306378980906832,1.457903169319617,1.4619717174811315,1.4454608896124974,1.170350483838539,0.9645316261273413,0.8280043164789046,0.6729103924847487,0.5664148154256289,0.4468973505517786,0.3143579978631979,0.18530784949850293,0.1957847456337246,0.1688754828728923,0.10458006121600605,0.05030223064341909,0.042102904373125756,0.021556880086598826,-0.01133584221616169,-0.04092027675628147,-0.06789120460241922,-0.09556241945662279,-0.12393392131889218,-0.15211778184288033,-0.14155272430707785,-0.14137040807297607,-0.15157083314057485,-0.15898921106116173,-0.13685354187907184,-0.12263685575121552,-0.11633915267759282,-0.10791956448971249,-0.15240686447872465,-0.18271780650669472,-0.19885239057362272,-0.2187855183078265,-0.17226955678122757,-0.14355857505984432,-0.13265257314367673,-0.11697574126744917,-0.10749726124159881,-0.09635793784303592,-0.08355777107176052,-0.07120262594095803,-0.10005382994545514,-0.11786382597611383,-0.1246326140329341,-0.13435988484980843,-0.10954719177812572,-0.09398945413698202,-0.08768667192637732,-0.07890403188217367,-0.09218790522089226,-0.09955907411888627,-0.10101753857615571,-0.10406030741340122,-0.12094212140794616,-0.13411577442857492,-0.1435812664752874,-0.15404035726036536,-0.11335313126279639,-0.08637051954296403,-0.0730925221008683,-0.05614238433047303,-0.06859407072782037,-0.0731675620834192,-0.06986285839726952,-0.06866911071037127,-0.09276429642164676,-0.11008333285143715,-0.12062621999974243,-0.13298477087581437,-0.11816897660053291,-0.11063452616340118,-0.11038141956441919,-0.10817728276419167,-0.0958403953171856,-0.08621857022308982,-0.07931180748190425,-0.07167754597585625,-0.1154077996852696,-0.14537497302308397,-0.16157906598929933,-0.18147096522644923,-0.10649504996484425,-0.0569388889858862,-0.03280248228957507,-0.0018548729614311348,-0.03573705730056295,-0.05224815078107191,-0.05138815340295802,-0.055182725792059795,-0.08700663566332335,-0.11132010719186228,-0.12812314037767655,-0.14693858945222765,-0.10065376221680836,-0.0718125014456886,-0.06041480713886832,-0.04434312328482039,-0.03242607644659283,-0.019395797975131752,-0.0052522878704371525,0.008592932717143745,0.004221508894245526,0.0047312202299401125,0.010122066724227503,0.01420501699462279,-0.010453900565479068,-0.027411457851437154,-0.03666765486325146,-0.04798742514114372,-0.0562808580738803,-0.0653851956542755,-0.07530043788232929,-0.08499839886490432,-0.018303141764425098,0.0279226142434851,0.053678869158826255,0.08491991036138927,0.07076056204916767,0.06876621144349102,0.07893685854435932,0.08584790433383244,0.060788376822976053,0.04429533860950298,0.036368789693413194,0.026146856888119706,0.04932207972986231,0.06354856168648507,0.06882630275798801,0.0765018517229342,0.053541868507005944,0.03879065139864068,0.03224820039783838,0.023506217147658617,0.06724162514204796,0.09691575853156294,0.11252861731620356,0.13190918327577253,0.11196069336586226,0.10255039221525747,0.10367827982395814,0.10198246826491618,0.13183238001305397,0.15322964067637732,0.1661742502548862,0.18138374086547315,0.13415174401173652,0.10365089329826344,0.08988118872505393,0.07162838705511373,0.09177734769969466,0.10163658714416772,0.10120610538853292,0.10353274611880843,0.07647338364440116,0.05728797699746703,0.04597652617800603,0.032555255253335275,0.05889188632974854,0.07457541967221562,0.07960585528073652,0.08749077982395814,0.07841795940492215,0.07388895305397603,0.07390376077111978,0.0727010571781617,0.08635831213731743,0.0960338532028743,0.10172768037483232,0.10848840456907194,0.07459640031563472,0.05159726181987423,0.03949098908179048,0.024465981760676617,0.03984077500685031,0.04706996624095212,0.04615355546298205,0.047419752166011964,0.05953118959246709,0.06873665352535929,0.0750361439646886,0.08211428765484434,0.08024290805332938,0.0807695459904611,0.0836942014662395,0.08597631007910186,0.04913347948686824,0.02277414475855686,0.006898305894167712,-0.011786577220814411
5,-0.035223317841485025,-0.03439533234670661,-0.027952298372065885,-0.023013812103065873,-0.01957987353970657,-0.015742792633646738,0.013791469739814422,0.036440193091329384,0.052203377420898145,0.06981153637085037,0.03637101465231135,0.016608945693568824,0.01052532949462279,0.0007765829249820272,0.005898677684443121,0.00703614251900001,0.004188977428652693,0.002409490708820344,0.012572389666916208,0.0195353360269102,0.02329832978880232,0.02791874826517371,-0.015843548641556925,-0.04664173603376051,-0.06447581391143706,-0.08578361446411975,-0.10218970732705993,-0.11990920880700003,-0.1389421189039401,-0.15762310222262294,-0.08783786726230534,-0.041757084047281345,-0.019380752577550956,0.009347167594353369,-0.024812047666347363,-0.04212070577357493,-0.042578806727329326,-0.04755200086237134,-0.00351413967195802,0.027391248823802464,0.04516416462491012,0.06645591587917378,0.016246740601023928,-0.01480381915468869,-0.02669576338796407,-0.043721243178574884,-0.051921618629407223,-0.06248667366120361,-0.07541640827396404,-0.08771252890264677,-0.062010893567754466,-0.04649072625749698,-0.0411520269718743,-0.03308521155128743,-0.040415589545419184,-0.043620301998371275,-0.04269934891014373,-0.04288386457191618,-0.047538561995269464,-0.05099547782558683,-0.05325461206286827,-0.05583469091071256,-0.06752793953856888,-0.07677932168338326,-0.08358883734515571,-0.09105264915908387,-0.09534390029598803,-0.10048523650423952,-0.10647665778383833,-0.11224029945507188,-0.11962211489530541,-0.12657034198092218,-0.13308498071192218,-0.13971579909238926,-0.1314033997716108,-0.12709502356620356,-0.12679067047616752,-0.1254134426258922,-0.12460435588317985,-0.12364303618950909,-0.1225294835448799,-0.12145672159652143,0.18889411234696424,0.41637413666270096,0.5609833513506888,0.727797732554545,0.8974149761250121,1.0662811949878503,1.2343963891430596,1.4027128197621739,1.4404084112726174,1.5131037511369048,1.620798839355036,1.7191157732664626,1.4309532580515212,1.2463475991212154,1.165298796475545,1.0565020178177007,0.8771454693479221,0.7166953542173773,0.5751516724260661,0.42854202708975453,0.39006350245514976,0.3226113313518504,0.2261855137798564,0.137523161380934,0.13473084448997008,0.10892972093061684,0.06011979070287429,0.017475051640730512,0.0047762420613173704,-0.015946555139592793,-0.044693339961999985,-0.07129010378114972,-0.09377011085241922,-0.11735319956971858,-0.1420393699330479,-0.16642997046013785,-0.137760582185012,-0.12330857505984429,-0.12307394908463473,-0.1190297873118084,-0.10137910221305987,-0.08737427405128746,-0.0770153028264911,-0.06567942717971259,-0.07078412431392817,-0.07148358324837129,-0.06777780398304194,-0.06525240473580836,-0.07641939656188622,-0.08391752325741918,-0.08774678482240719,-0.09255911583626344,-0.11927363201737132,-0.14011947537043717,-0.15509664589546107,-0.17164632256540127,-0.15268343410893415,-0.14323610879924553,-0.14330434663633537,-0.1408228970127186,-0.15089406957126952,-0.1576017771532156,-0.16094601975855688,-0.16519150008814978,-0.13492174628554487,-0.11390032159523353,-0.10212722601721566,-0.08787604812222151,-0.1250414790848923,-0.14842987122660486,-0.15804122454735922,-0.17134412429428156,-0.12604789903668262,-0.09645326200121554,-0.08256021318788036,-0.06445993649053891,-0.08679360336456893,-0.09829302771184437,-0.09895820953236523,-0.10252641788853294,-0.1037514774286527,-0.10560438180177847,-0.10808513100791023,-0.11039764969806598,-0.08876296138959283,-0.07354490785738321,-0.06474348910143715,-0.05422273823906582,-0.07634624857395811,-0.08972275548353298,-0.09435225896779041,-0.10132551495605391,-0.09230358581131737,-0.0875675536057545,-0.08711741833936527,-0.08551888044928146,-0.08061190989595209,-0.0765914312029521,-0.07345744437028151,-0.07008592275953891,-0.09924543071282643,-0.1196882755654791,-0.1314144573174969,-0.14547626190802398,-0.11660216512964067,-0.09923270844935926,-0.0933678918671797,-0.08442041626150304,-0.0781873281224791,-0.0712269220538204,-0.06353919805552695,-0.056046358309119804,-0.02436906225015564,0.000828028270473102,0.019544913252766423,0.03999816407584441,0.0034231927875868024,-0.017871112440155733,-0.023884751607383205,-0.033992832905335356,-0.029220146885275463,-0.028434750450832345,-0.03163664360200599,-0.0337701457287246,-0.010007768278616741,0.006815829151586866,0.016700646561886214,0.02844470447497612,0.0018482480888742233,-0.014474898453365314,-0.0205247351517425,-0.02932729692637731,-0.007594666516389221,0.005956083807000032,0.01132495404379045,0.018886152442353314,0.03296161238625753,0.045291581209802416,0.05587605891298797,0.0669282395522695,0.04089231997324545,0.024794126896520923,0.018633660322095923,0.009810387956778405,0.058353007556353365,0.09152448273084436,0.10932481348025137,0.1312438299651018,0.11488101578921553,0.10877578722365869,0.11292814426843117,0.11433198953262282,0.09836240500529941,0.08704801696037127,0.0803888253978384,0.0724822776972395,0.09576705676158087,0.11069414500840125,0.1172635424377006,0.1260723763721437,0.14224368361880843,0.15644222208716768,0.16866799177722147,0.18142236326827557,0.12266789109799991,0.083074155838461,0.06264115748965879,0.03707405515923948,0.0720030379046887,0.09072214350881447,0.09323137197161674,0.10008402392384437,0.08214730633039521,0.07085288028758682,0.0662007457954192,0.059768814646365305,0.049899654608365276,0.040951497275359294,0.03292434264734735,0.024650406088305377,0.03015571461896406,0.03196888555552694,0.03008991889799402,0.029200257527143662,0.06497669121445515,0.09092847434132939,0.1070556069077664,0.12581524665779054,0.07764815309417364,0.04741402367399997,0.035112858397269534,0.018006569860407218,0.005820358167071838,-0.00768418414318565,-0.02250705707036525,-0.03697668437338335,0.010724913193826402,0.04176778126460487,0.056151919838952055,0.07499975152879652,0.027551103423508937,-0.0021334564596467726,-0.014053928120670602,-0.030734272875089886,0.0008919158106706982,0.019574407871988067,0.025313203308862213,0.03452025180332937,0.011316537855832295,-0.003202738469263502,-0.00903757717195802,-0.01719940392229342,-0.00025173919462869853,0.009967857569149733,0.013459386369041877,0.018753695546479057,-0.003020571085461137,-0.01754183468901804,-0.024810095264191652,-0.03402179214352105
6,-0.027909659694964103,-0.02652126755325155,-0.006692142989479026,0.008195802213964107,0.018142568057077847,0.02941331891944918,0.003256811490538903,-0.012871092304311426,-0.018970392465101803,-0.02775684887085037,-0.0033334443214251257,0.012191404804311422,0.018817698506359278,0.027828352947988105,-0.0008905645924670753,-0.019499873789550932,-0.027999574643263463,-0.039208136888377286,-0.029952083718850293,-0.02617950772308981,-0.027890408901095842,-0.028132016798676638,-0.04976726601941323,-0.06567010632444914,-0.07584053771378435,-0.08754696344276654,-0.044220249010185585,-0.01563962004084426,-0.001805076534742562,0.015980668662754507,0.016088982245760487,0.02093394935412575,0.0305155699878503,0.03882800813462879,0.018723392989479025,0.006233104325173612,0.0013571421417125523,-0.005559072673197663,0.011225880772670678,0.02166012532338925,0.025743660978958048,0.031528863954347376,-0.006571669113586849,-0.032913054649467116,-0.04749529265329341,-0.065228384742012,-0.07057051780813772,-0.07923279833781435,-0.09121522633104186,-0.10230802349265866,-0.11121644054802997,-0.12071016048883237,-0.13078918331506587,-0.14071137470582049,-0.08800645193671852,-0.05208241383104187,-0.03293926038879051,-0.009299682452694536,-0.05414154007070065,-0.08063385233546114,-0.08877661924697602,-0.10183613201737132,-0.08952493506449702,-0.08401179929337724,-0.08529672470401199,-0.08476011511089826,-0.0626960801660898,-0.04640030145938921,-0.035872778990796494,-0.023799656921467002,-0.0762438928766408,-0.11140075485135932,-0.12927024284562255,-0.1517718687372036,-0.12815350690453303,-0.116892958537509,-0.11799022363613146,-0.11577622259641951,0.09293694448311976,0.24631882678458702,0.3443694243079822,0.45724599490383827,0.6932771891169462,0.8963092013876529,1.066342031715958,1.2452169661966173,1.2855759359757248,1.3630501466354312,1.477639598175736,1.582284050895198,1.3734917567478804,1.2486845858017546,1.2078625380568204,1.1445367443738987,0.9096984004088264,0.7208167057836588,0.5778916604983955,0.42265256813566454,0.3675644096264611,0.2856408892699821,0.1768820070662277,0.07531363839804776,0.10510708568387431,0.09970224046853904,0.05909910275204196,0.02792731908618563,0.008305604016389221,-0.01441094260624551,-0.04022232078171857,-0.06520444134189825,-0.08384861159238927,-0.10419103051002997,-0.1262316980948203,-0.14781732132070066,-0.12418406082411375,-0.11266716370359878,-0.11326662995915576,-0.11061952643289225,-0.13137482812247914,-0.14585947423353302,-0.15407346476605382,-0.16396767239685633,-0.13813438126279637,-0.12187424457036528,-0.11518726231956299,-0.10593516106710785,-0.11252577103750902,-0.11487133932982638,-0.11297186594405986,-0.11220984804777238,-0.14741532238405997,-0.1729833362228564,-0.1889138895641616,-0.20742679266285646,-0.12088265970000592,-0.062488474709053804,-0.03224423769000011,0.005542755155101893,-0.02688047896249102,-0.040490939465023995,-0.03528862635249703,-0.03512718073751491,-0.076080783215024,-0.1060176417593833,-0.1249377563705928,-0.1468097986219103,-0.13093639831131737,-0.1251768588531437,-0.12953118024738924,-0.13117550079386828,-0.12902067321037125,-0.12788382430022752,-0.12776495406343713,-0.12737331726320958,-0.12645142212736526,-0.12567160928432936,-0.12503387873410182,-0.12435807734825753,-0.11516719318452094,-0.10825791857460475,-0.10363025351850898,-0.0983912330250239,-0.12169910872570061,-0.1373578666447366,-0.1453675067821318,-0.15542672185192824,-0.16618453435192823,-0.17675515823467072,-0.18713859350015571,-0.19757218580446712,-0.19837582123255096,-0.20175979582876652,-0.20772410959311377,-0.2129970235611618,-0.1900515568154791,-0.17466718239375453,-0.16684390029598806,-0.15699462961611987,-0.11183671056147304,-0.07613971532468261,-0.049903643905748585,-0.021132525590167563,-0.06448877096396412,-0.08851854748500605,-0.09322185515329343,-0.10310367454322161,-0.09348319276794013,-0.08908833684042514,-0.0899191067606766,-0.08934967445507186,-0.08144289302373056,-0.0755021483652156,-0.0715274404795269,-0.06702593462826953,-0.007944329122377143,0.03651258275824559,0.06634480101359869,0.10009569411539536,0.02576520253464062,-0.019604969303586947,-0.03601482139928735,-0.060184567782545016,-0.019290370942508947,0.004169994854461145,0.010196529608365265,0.020894445311239553,0.01900457718656288,0.02048759557297604,0.025343500470479022,0.029295643151173653,0.0242410214540898,0.021599754998449096,0.02137184378425154,0.020497275982059873,0.03363268233985629,0.043014127435503015,0.048641611269000025,0.05527496599110777,0.08620953377365276,0.11063261114155694,0.1285441980948203,0.14820053364620966,0.11008698562222152,0.08745283124909575,0.08029807052683238,0.06899561877649701,0.08417771351631143,0.09226329541218568,0.09325236446411976,0.0961429384016647,0.08846215460836528,0.08361395758194612,0.08159834732240721,0.07882374772619166,0.06928361446411976,0.06155630048417965,0.055641805786371304,0.04924156762589219,0.07350562781279046,0.08955321402104197,0.09738432625064669,0.10741703604746114,0.08740137761684433,0.07543715518664071,0.07152436875685032,0.06545420655283836,0.05500743281033532,0.0457333685951557,0.037632013907299484,0.02921643264864068,0.06436593406964078,0.08784220676843119,0.0996452507450119,0.1145761269307725,0.1056647884487126,0.1031419521326647,0.10700761798262873,0.1091614898363654,0.04059311683111967,-0.0090252877772456,-0.039693723988730424,-0.07543978892875465,-0.0008631982026166968,0.044152526030916274,0.059607383771844276,0.08298305181703,0.08130145613625754,0.08633393403538925,0.09808048551442511,0.10802800639980253,0.04553282955356282,0.002448615062041845,-0.021224637074760397,-0.05009904089882044,-0.013333660420329293,0.005843592862940178,0.007432718950987974,0.013734569517371285,-0.008699242835538955,-0.02343335751525153,-0.03046777452176644,-0.03956531930177846,-0.03630248412263473,-0.03635160277168861,-0.03971267524894012,-0.04218631237255691,-0.03574717530283833,-0.03169620888054491,-0.030033413105676657,-0.02773070893444312,-0.027126266725131746,-0.026066776594586838,-0.024552238542808386,-0.023159630214041924,-0.015996344725209565,-0.01037930752119759,-0.006308518602005991,-0.0018234137035987642,-0.0256224744491258,-0.04184281585177255,-0.050484437911539004,-0.06115677169889237
7,-0.12627981968410773,-0.12761791739840725,-0.08914499832411374,-0.061339409048185606,-0.044201149570622836,-0.024204587688191618,-0.029237584782209603,-0.027563931761580864,-0.019183628626305398,-0.012600366973167621,-0.027478916173353303,-0.03660679048728146,-0.03998398991495209,-0.044902078034329364,-0.03783183673262872,-0.03397385861790418,-0.033328143690155736,-0.03182170543558083,-0.05748375762989826,-0.07586603474886232,-0.08696853679247299,-0.10002164868860483,-0.07834503291128142,-0.06597421961741315,-0.06290920880700004,-0.05735071573622158,-0.055660746643185655,-0.05293420967441319,-0.04917110482990417,-0.04568574751059881,-0.03758386428277845,-0.03071897544398204,-0.025091080994209577,-0.019131734896856316,0.0030011915771377337,0.02080042025049103,0.034265951123203575,0.048892692821838335,0.0534032347351617,0.06062440421143116,0.07055620125064668,0.07976168782338929,0.06498990897464073,0.056642819032287434,0.05472041799632933,0.05107652675628146,0.03573900719871258,0.023534785905413164,0.014463862876383213,0.00455337510779642,-0.015537339491520974,-0.032900270532778456,-0.047535418015976015,-0.06290147290068264,-0.08006972066112579,-0.09675507229591024,-0.11295752780503593,-0.12928937494106,-0.09025061197471855,-0.0660483592697245,-0.056682616826077864,-0.04334144343940714,-0.06832188916218566,-0.08303408799193418,-0.08747803992865272,-0.09467336032804202,-0.0678714601448922,-0.050179087761736504,-0.04159624317857489,-0.030572507977976005,-0.05438320298043116,-0.06886004054117967,-0.07400302066022155,-0.08164700034303596,-0.08678851632819762,-0.09260056544023354,-0.09908314767914372,-0.10538606110820964,-0.08842737949371855,-0.07770162348580839,-0.0732087930844791,-0.06704585530038322,-0.09914517665533537,-0.12099215657338924,-0.1325867950545449,-0.14692854014424556,-0.15865780903034743,-0.17108708880544912,-0.18421637946955066,-0.19715810278125168,-0.0799409028538923,0.0024003187038563467,0.04986556189199427,0.1066757953195147,0.3678010440742936,0.5741802494705811,0.7258134115083772,0.8921157316528804,1.0593058143325393,1.2262580217578325,1.3929723539287602,1.5597504245819946,1.480367744075198,1.4669436380499703,1.5194781065063112,1.554339028196408,1.2840545091687785,1.095533464555503,0.9887758943565812,0.8601098672179707,0.6835176313559881,0.5197671844177186,0.36885852640316197,0.21450892141712558,0.21936592077486827,0.18156363906899414,0.10110207629950309,0.03207103344070048,0.05354343832811981,0.05076551747970666,0.023737270895461036,0.0032068795083233983,-0.06074420820907794,-0.1130607554099881,-0.15374276209440707,-0.19754223451452704,-0.16101057823531734,-0.14600358301817362,-0.15252124886309584,-0.1532713991590839,-0.16084047836456894,-0.16658243107550902,-0.17049725729190418,-0.17490166057698214,-0.1257380130303233,-0.09092788144413769,-0.07047126581842528,-0.04616863718255683,-0.08890065956752101,-0.11367080134655097,-0.12047906251964668,-0.13210019509564672,-0.13214963447252098,-0.1352996996971617,-0.1415503907695689,-0.146970271650036,-0.1363685602997365,-0.1300598216491317,-0.12804405569822155,-0.12487799117929935,-0.14760414017164675,-0.16339249146339527,-0.1722430450545449,-0.18295257593682052,-0.12980814970310775,-0.09377333971215564,-0.07484814596396412,-0.0513384443607185,-0.07788043869080241,-0.09101112151574256,-0.09073049283553895,-0.09404341424258085,-0.10394285814742518,-0.11207744866805391,-0.11844718580446709,-0.12528981397994016,-0.1350000697526108,-0.1439419470264192,-0.15211544580136527,-0.1604948309745629,-0.14711713788323355,-0.13956923634254492,-0.13785112635249702,-0.13457092842441318,-0.1369696208493174,-0.13784665919023356,-0.1372020434471617,-0.13696515368705392,-0.1267452725174491,-0.11920032583406587,-0.11433031363690419,-0.10874355490435328,-0.1015831437294491,-0.09484439145564075,-0.0885272980829282,-0.08209722154818563,-0.09689123552902999,-0.10599827159613778,-0.109418329749509,-0.11436220904223958,-0.10957601151108984,-0.10739698020719163,-0.10782511513054494,-0.10755466196877249,-0.10225935968126351,-0.09831046165908386,-0.09570796790223354,-0.09274470620980242,-0.07826960244829938,-0.06687908747259878,-0.05857316128270064,-0.04944072201866463,-0.07960640395654497,-0.09924218605431145,-0.10834806831196404,-0.12027542872815578,-0.0900965250803952,-0.07119996088486225,-0.06358573614155692,-0.05294841765329341,-0.052575080254239515,-0.04945151741120359,-0.043577729124185643,-0.038440861523886205,-0.055753239263131776,-0.06705035984295812,-0.07233222326336523,-0.07922586998190426,-0.04831970736635327,-0.027541973135922132,-0.016892667290610817,-0.0035294572389101848,-0.001197550753670671,0.004090184613664663,0.012333748863095816,0.019785301150604808,0.022691501533838324,0.026815625289137723,0.032157672416503,0.03717337795988023,0.05412319105276052,0.06787526966536529,0.07842961379769457,0.08984078830162283,0.05486156508259277,0.032312611469987984,0.022193927463808473,0.008744562754886186,0.04551156700832341,0.0688231357514731,0.07867926898433528,0.09214077529598803,0.08439542368085028,0.0823324325211976,0.08595180181703,0.08804858721771262,0.09150519311097606,0.09459743620140118,0.09732531648898798,0.10015082749534726,0.11683422383659883,0.12980441099356294,0.13906138896623954,0.1493133183411738,0.10732492061317364,0.07933427634474247,0.06534138553588027,0.04759780799167661,0.0546793775629461,0.05510906901264076,0.04888688234076056,0.044447061039706595,0.06736480290003596,0.08295210780438925,0.09120897575276642,0.10143002836366465,0.10744889262679642,0.11459372986415571,0.12286454007574246,0.1308336467381857,0.09137659824371855,0.06462734972365866,0.05058590117800604,0.033139407891634755,0.023385261457191622,0.011569956895874256,-0.002306505792317352,-0.01563068282494016,-0.00786195411733533,-0.005745052468850288,-0.009279977879485035,-0.011300500793868268,-0.01404907837736528,-0.016602574300227546,-0.01896098856245506,-0.021371674798107785,-0.01710474280128742,-0.014627073217221563,-0.013938666045910209,-0.012770827456053924,0.00011735648614375274,0.009865083356167691,0.01647235315401789,0.023921105888221654,-0.04009483945222763,-0.08496187665623962,-0.11068000572381431,-0.1415290692624851,-0.11034206870889818,-0.09577758143043708,-0.09783560742710179,-0.09543964441552094
8,-0.047243719940802405,-0.044711098586754476,-0.04740968667188021,-0.0487065764123413,-0.048601767808137734,-0.048872543143419114,-0.08632345108391026,-0.11381197251835339,-0.1313381074467485,-0.1515336557941259,-0.110232913757497,-0.0854100530667724,-0.07706507372195212,-0.06430485937752092,-0.08536991546763478,-0.09737151766104798,-0.10030966595776047,-0.10567635940673066,-0.06311454402543712,-0.03339513387964067,-0.016518128969341322,0.003799988052682695,0.0022861464686946545,0.006622160562377244,0.01680803033373046,0.025426436000413218,-0.015161881762485108,-0.04256529772024559,-0.0567838118728682,-0.07453520981646115,-0.04535263470776048,-0.028745979776005955,-0.02471524502119759,-0.01731480261089824,0.016234338678006034,0.042776957219263514,0.062313053012874195,0.08372654091846714,0.06525502807452696,0.05747066897153891,0.06037346360950298,0.06041264403319169,0.03302676809727545,0.012989413865293398,0.00030058133724550264,-0.014357281646934127,-0.031131204911203594,-0.047338131532287414,-0.06297806151018559,-0.07876991778073653,-0.09614120065272458,-0.11308927744235334,-0.12961414814962277,-0.14625241658489233,-0.12669222748255093,-0.11683138584466467,-0.11666989167123355,-0.11390946517759282,-0.11335853363160481,-0.11221556969871259,-0.11048057337891617,-0.10890421165908384,-0.11001953125,-0.11041361700741917,-0.11008646893134132,-0.10995257487850302,-0.11466376730340722,-0.11807672271934135,-0.12019144112630542,-0.12265402109140722,-0.12082893149208984,-0.12015271948997007,-0.12062538508504794,-0.12079020985575453,-0.14048253512614978,-0.15494248240745512,-0.16417005169967056,-0.174799632448557,-0.14159684002546127,-0.12013889659613777,-0.1104258021605865,-0.09756568492192849,0.1566125632006767,0.3461298130339403,0.4709860645778623,0.6131681783952035,0.8150105537624075,1.000867010227096,1.1707375477892694,1.344891499411641,1.388121216681701,1.466431976816126,1.579823779814916,1.6838156457085576,1.4406348321507605,1.2904786576861258,1.2333471223146528,1.1512897100219706,0.919695595847509,0.7281697201810842,0.576712083022695,0.41451819371394016,0.36402625824746715,0.2836038744559762,0.17325104233946723,0.07091804968074833,0.09004905284613776,0.0766338764210001,0.03067252040533535,-0.00656811307232937,-0.0288705971949641,-0.05517574637369462,-0.0854835606085209,-0.11471886397399406,-0.11312955705071859,-0.11979967956131742,-0.13472923150579047,-0.1474456760035151,-0.12502770079981435,-0.11202396498164668,-0.10843446854901205,-0.10232243427567057,-0.16950738425188633,-0.21705246649079657,-0.24495768099240117,-0.27812538219367083,-0.22710221474640718,-0.19863792256359278,-0.1927325056452276,-0.18078245631759884,-0.17304010378114976,-0.16417030228750903,-0.15417305183667668,-0.14447790042343114,-0.1437379713129461,-0.14059849761839524,-0.1350594793397785,-0.1301634170946647,-0.1415826820507186,-0.1486302682589701,-0.15130617571941918,-0.1551534709699102,-0.15769146665753295,-0.16058028810567668,-0.16381993531434139,-0.16696557904379047,-0.17450056486195814,-0.18085943001214974,-0.18604217449436525,-0.19154005955976647,-0.18665494300317964,-0.18455194334621558,-0.18523106058887423,-0.18516471185503003,-0.1470694725772934,-0.11916404380984429,-0.10144842555268271,-0.08100245579826343,-0.10955053961986833,-0.12497070635185037,-0.1272629559942096,-0.13307282041903595,-0.11475448334841315,-0.10290127838331135,-0.09751320552373058,-0.0903928057375149,-0.12775005356646113,-0.1531895516356887,-0.16671129994519754,-0.18342639967841926,-0.13888377612914965,-0.11075511006359276,-0.09904040148174861,-0.08292758624754487,-0.12913196968591623,-0.15863851006540128,-0.17144720738599997,-0.18873007826956892,-0.19364247277323954,-0.20186952643289224,-0.21341123924852695,-0.2240647918201319,-0.2020103258144192,-0.18871994697252095,-0.1841936552944371,-0.17731903353841322,-0.12791856203456278,-0.08991285762808976,-0.06330192031899409,-0.033637764368215445,-0.09531571768159887,-0.1325186265826947,-0.14524649107150295,-0.1645324239452995,-0.1216712001137425,-0.09546225673327542,-0.08590559380389823,-0.07188696577551494,-0.08169252807452697,-0.08511441781498805,-0.0821526349968982,-0.0809013520856168,-0.0712472961179042,-0.06384475640484433,-0.05869373294643719,-0.052939417525850324,-0.062243212595000055,-0.06751219911888626,-0.06874637709750892,-0.07106167876744912,-0.045403111416089784,-0.02724011967816167,-0.01657270355366476,-0.0038968539967425475,-0.003151827059119786,0.0007900541643832354,0.007928789673766519,0.01421093065892821,0.006101412204011983,0.0018481272738083776,0.0014510758683173952,2.0749804053843825e-05,0.0326457321722156,0.0561456221479162,0.07052041973115564,0.08734027845181443,0.07206250539538323,0.06538526685257484,0.06730856282338926,0.06692735251680246,0.04968876817082034,0.03696710358520356,0.028762358759952138,0.019347308932634637,0.07521611837452107,0.11359217044643723,0.13447546514838313,0.16004593006100612,0.09187514239659875,0.04882224765768857,0.030887245844275574,0.0062219249059042026,0.013884389162185658,0.012884649482473086,0.0032227058667664843,-0.004118207199616824,0.020062534876305396,0.0357970749127545,0.0430854129097305,0.05263690392229342,0.04776529492710179,0.04675834393134132,0.049616050935011986,0.051438225948712606,0.05003326280968866,0.04949300873255092,0.04981746371729939,0.049910220607227586,0.03139448163323352,0.017864874098335322,0.009321398002532975,-0.0005581079857305367,-0.0006867337795988013,-0.003428100047047901,-0.008782206788077836,-0.01343623182917968,0.004514807717143743,0.016408838462413197,0.022245860406628674,0.029705852967634772,-0.0028579417927305714,-0.024697395062299426,-0.0358125068410718,-0.04980119726165867,-0.048090140392281405,-0.05058581813062274,-0.05728823047668266,-0.06286345168183234,-0.09200851542149115,-0.1148380588882995,-0.1313520820822574,-0.14955834383310795,-0.05509391397813164,0.009180495050407293,0.043264883252508844,0.08543866315453306,0.028521240963706528,-0.0018447736493114701,-0.0056593806845209385,-0.01658841593811379,-0.009291206915520928,-0.0068777053277844,-0.00934791117490421,-0.010509531558784393,-0.03642730829541918,-0.05571169292963477,-0.06836268546143115,-0.08279109005014974,-0.09982609455847313,-0.11616266272334738,-0.1318007945447725,-0.1476260718203894
9,-0.026482212952640836,-0.030824052267862317,-0.06326993357951509,-0.08818535953417372,-0.10557033013183828,-0.12497308016104802,-0.09162756042717962,-0.07241589697846704,-0.06733808981491023,-0.058473127273808385,-0.062372215574526955,-0.06285118676002996,-0.05991004083031739,-0.05788531251964671,-0.07445108126370063,-0.08603554133504794,-0.09263869273368862,-0.1005765817684312,-0.08815829373629941,-0.08119442691022155,-0.07968498129019762,-0.07671402791283234,-0.0817251897002635,-0.08459755017539523,-0.08533110933822756,-0.08663775858546115,-0.06118878291128141,-0.04290895532778441,-0.031798275834970115,-0.01876662890083827,-0.051920056707682655,-0.07269823103531142,-0.08110115188372458,-0.09282001190802398,-0.10826311958497012,-0.12270831811097606,-0.13615560748604183,-0.14987028581222164,-0.10671448419617963,-0.07879708175382631,-0.0661180784851617,-0.04935595846396412,-0.019228400928161665,0.0073178984191137764,0.03028293957786222,0.05420757597611382,0.04478856199526946,0.044303952206209564,0.05275374660893412,0.05880957462361681,0.05676324974511383,0.05688789019129344,0.05918349596215562,0.06089739332747314,-0.004228077308964153,-0.05144399326672462,-0.08075035454580827,-0.1148555665378444,-0.07422539250439517,-0.05362050480250295,-0.053040903432167746,-0.04709554276108984,-0.05841291514424555,-0.06510475214636531,-0.06717105376744913,-0.07047676385844312,-0.08889957406498805,-0.10327176950367069,-0.113593350174491,-0.12500028980120959,-0.11998702926532935,-0.11937354810257488,-0.1231598463129461,-0.12576722719341324,-0.11978818085991619,-0.11610986076426949,-0.11473226690647306,-0.11273819531123956,-0.09050357222740715,-0.0736923885693054,-0.062304644336934265,-0.049463693890239496,-0.10063535924503601,-0.13465489589041924,-0.15152230382638912,-0.172985610798521,-0.1492637222146108,-0.1376491702897844,-0.13814195502404183,-0.13539058867800605,-0.10401236665934142,-0.08030468750000003,-0.06426755119998179,-0.046175099135299616,0.10975828101980235,0.22875729580911988,0.31082194523265294,0.402783128028904,0.7085758942583478,0.9570726603905994,1.1482734264256589,1.3548266094162944,1.3495828682813302,1.4010899419252163,1.5093478303479522,1.6023993837808872,1.362662746158102,1.2120964355793113,1.1507004520445152,1.0654113513894616,0.8644862148738505,0.694545660783012,0.5555896891169464,0.4083314236123474,0.33737597836961086,0.2459752540574911,0.13412925067598824,0.027761543310155533,0.042313315837167687,0.024464811377700683,-0.025783970068245482,-0.06735112346111986,-0.0579392122177126,-0.062187100174491014,-0.08009478733145509,-0.09434234232395812,-0.09830089127429942,-0.1050163710845569,-0.11448878175473055,-0.12322247502740123,-0.1174300887711976,-0.11552995379394611,-0.11752207009564673,-0.11847126081041315,-0.15216907438837732,-0.17709192091691625,-0.19323980039602995,-0.21173892520964682,-0.1845469756792216,-0.16959791262059284,-0.16689173603376056,-0.1609050879037845,-0.15547664304337727,-0.14989862806767665,-0.14417104297668268,-0.13848353507729338,-0.16456623976786233,-0.1821361416515869,-0.19119324072846705,-0.20253133844276655,-0.16589658182737121,-0.14211611278823347,-0.1311899313253534,-0.11681945388713767,-0.17611853187713186,-0.21567791198337738,-0.23549759420587418,-0.2606065125351559,-0.21304414703236524,-0.18495399334531132,-0.17633605147399403,-0.16250054617180237,-0.16510620943917367,-0.16330647486570665,-0.15710134245140123,-0.15207663283088627,-0.14628927320352098,-0.14070626502959885,-0.13532760830911983,-0.12989419578171862,-0.12708473657778444,-0.12357219119985033,-0.11935655964791622,-0.11532931946851491,-0.16750532577512584,-0.20462171757380246,-0.2266784948645448,-0.2527704837010122,-0.17328431777298198,-0.12208773315246702,-0.09918072983946721,-0.06869355606090416,-0.09881019989310784,-0.11268809973826355,-0.11032725559637122,-0.11231756979190417,-0.1241562097283114,-0.13335599873565274,-0.1399169368139282,-0.14718495286759298,-0.11076108808512576,-0.08604442748849697,-0.0730349710777066,-0.056888578759694566,-0.06425668672577842,-0.06532410333031738,-0.060090828573311446,-0.056545818978389215,-0.08431085069382642,-0.10368638212516772,-0.11467241327241312,-0.12790640424568273,-0.10213798692082035,-0.08682023340231135,-0.08195314369015576,-0.07428580705071862,-0.07356966169928145,-0.07099095025579044,-0.06654967272024558,-0.06260746826491616,-0.09369092983080843,-0.11538929247195216,-0.12770255618834725,-0.142530549582515,-0.15457740300098208,-0.16736946062997607,-0.18090672246949693,-0.19424430744261087,-0.14171300137214368,-0.1068312114631377,-0.08959893771559284,-0.06763749036578444,-0.055337845680772456,-0.040449328774299416,-0.022971939646365284,-0.006188236739479026,-0.0012545423102574824,0.006854352320856279,0.018138447153862258,0.02857174965696408,0.035176406519491055,0.042806945889514995,0.0514633677670359,0.059844905255143785,0.0330606374862994,0.0156990188372455,0.007760049307982094,-0.0027037114434910036,-0.009453229628916184,-0.017197976110407204,-0.02593795088796406,-0.03441125504730548,0.0016298576426946182,0.025743368286371297,0.03792927688372456,0.05331117681702998,0.05718614194072458,0.06414438095401197,0.07418589385689217,0.08340124601101202,0.06417122959466466,0.05256312671517963,0.048576937372556916,0.04254846245295211,0.04187991265484432,0.03977517524894013,0.03623425023523952,0.033078150531227535,0.030842598694550888,0.028360386800227545,0.025631514848257507,0.022968735259538922,0.03276681118175452,0.0392260109328144,0.04234633451271856,0.046361307266311415,0.03585733665908385,0.029243705200341315,0.02652041289008383,0.0227547073467066,0.010489468877443094,0.0005016733917125558,-0.0072086791104850195,-0.015529270620928178,0.001891895674826392,0.012415578754652733,0.016041778618550842,0.021516153539964146,-0.032000933760856366,-0.06971130639889825,-0.0916149643741615,-0.11775401877830546,-0.04990186087710769,-0.007234572408748443,0.010247846626772288,0.03447853108830537,0.010481593465904097,-0.000592791766233584,0.001255375391892319,-0.0003590449271017797,0.0324872262867067,0.056099783033682696,0.07047862531382622,0.08733163392849708,0.03919162774428739,0.008466447389101754,-0.0048439071370598346,-0.022820550180437073,-0.05919269311097607,-0.09063577670238326,-0.11714980095465866,-0.1449845626762995
10,-0.09460438575147309,-0.0962802568899282,-0.08769407525579044,-0.0818576023747545,-0.0787708382468204,-0.07494729187907186,-0.08978692887524553,-0.0996257809608623,-0.10446384813592212,-0.11064187158928743,-0.10413830620295211,-0.1010327623049581,-0.10132523989530541,-0.10070722037198808,-0.0863505560951557,-0.07567515058512575,-0.06868100384189824,-0.06070046678497602,-0.07578950259719763,-0.08469706498940122,-0.08742315396158677,-0.09180556374470063,-0.07440839441552094,-0.06284704572097007,-0.05712151766104798,-0.04983228617490422,-0.053847980927515,-0.0548345298239581,-0.05279193286423351,-0.05156099309042513,-0.04187007405038318,-0.03444599962271255,-0.029288769807413254,-0.023524140808862216,-0.0850609887533594,-0.128564460301545,-0.154034555453419,-0.18433667924749117,-0.09525602263028732,-0.038163885614466965,-0.013060268200030046,0.020614647208664703,0.0048575031412215215,0.0023456394906167253,0.01307905625685031,0.020263410831868285,0.02344162090321559,0.027693274159083833,0.03301837059947302,0.03805583880544912,0.025798126984670662,0.018174644685011974,0.015185391906473049,0.010954401070209618,-0.007245257776988015,-0.021702023311317372,-0.03241589553277845,-0.04413267299477844,-0.06883076847456292,-0.09005053027479047,-0.10779195839546106,-0.12646540321657493,-0.10934912972895808,-0.10182268235950301,-0.10388606110820968,-0.10337985369300001,-0.13627842385714978,-0.1602262108455689,-0.1752232146582574,-0.192618573594509,-0.17070005077331735,-0.15931565082036528,-0.15846537373565273,-0.1547924869354252,-0.1453899835443593,-0.13752272629174853,-0.13119071517759284,-0.12444733610045508,-0.11957587200586826,-0.11420282980340721,-0.1083282094930719,-0.10258798663168264,-0.11331016646249104,-0.11962125878644914,-0.12152126360355692,-0.12460321575586827,-0.15243112176558693,-0.1736283694232755,-0.18819495872893394,-0.20453822758530552,-0.1274223927491977,-0.07534884927282631,-0.04831759715619133,-0.014576283293090082,0.22162756293118574,0.4035817371117248,0.531286239248527,0.6735268971991019,0.8854683242558924,1.0787334865188445,1.253322383987958,1.4329155715262103,1.4083834884445752,1.4385466067803234,1.5234049265334548,1.593607711236941,1.3152079546074613,1.130215967407587,1.0386317496373176,0.9220189954815932,0.7305389057503113,0.5591194581259701,0.40776065260856925,0.251026614238964,0.2741726692556348,0.2491199985150181,0.17586860201711374,0.11553201516208378,0.08223838877029335,0.04169862296143112,-0.0060872822645029155,-0.05193159028538924,-0.07230627495295211,-0.09950552462956289,-0.1335293393152215,-0.16572451731801205,-0.1501262573800539,-0.14733421054182635,-0.1573483768033294,-0.16393112860665873,-0.1582951372510599,-0.1559331482574192,-0.15684516162573658,-0.15687990870514973,-0.17594655908928747,-0.18991362635249703,-0.19878111049477848,-0.20901502381604797,-0.21320119128800008,-0.21900784737630544,-0.22643499208096407,-0.23342792816952707,-0.20459331529818564,-0.18535866523743713,-0.17572397798728148,-0.16351698845465867,-0.1744957528863354,-0.17926191326737134,-0.17781546959776653,-0.17803368816642523,-0.1718032395522695,-0.16730070610200604,-0.16452608781563471,-0.16128847605650903,-0.13155939234270053,-0.10892867714546106,-0.09339633046479057,-0.07596198167252691,-0.13643469794268873,-0.1760322790446947,-0.19475472497854485,-0.2190706465225929,-0.19489924004239517,-0.18371997394943707,-0.18553284824371855,-0.18386448901328745,-0.1953199957218743,-0.20325897315052702,-0.20768142129924547,-0.21304612062868275,-0.15406664393043706,-0.11232813723645504,-0.08783060054673665,-0.05871335986764663,-0.12155231079942527,-0.1597516744500301,-0.17331145081946106,-0.19347338470271874,-0.14360288173327543,-0.11249751366249697,-0.1001572804903833,-0.08278894457631135,-0.11183220563152699,-0.12843951675938328,-0.13261087795988025,-0.14011444190052702,-0.12086626703391615,-0.10878619897683828,-0.10387423772929347,-0.09704158805087423,-0.12820642862035936,-0.14918987236350906,-0.1599919192803233,-0.17352206325457498,-0.13163078100015563,-0.10458962514708978,-0.09239859569537731,-0.07622848686692213,-0.10010113569757491,-0.11324435995075456,-0.11565815962646106,-0.12094689995295213,-0.11282812500000002,-0.10830188293868266,-0.10736817376900001,-0.10547184831222163,-0.0805982225576467,-0.061881345862113774,-0.0493212182256228,-0.03511139465076046,-0.04896218408928745,-0.05529415493175452,-0.054107307178161666,-0.054935120795419186,-0.043102018783347296,-0.03466139888959281,-0.029613261114155708,-0.023656110494778435,-0.030821949569718593,-0.03447149415378445,-0.034604744246976,-0.03568018260934733,-0.007842855065143664,0.01224732020344313,0.024590343196413057,0.03900920938527546,0.009366954156628679,-0.008469159170586871,-0.014499130596371193,-0.023692548210371252,-0.018272671279598803,-0.016768414820856278,-0.01917977883414368,-0.02054195550408389,0.014682385986712608,0.0401033994824731,0.05572108498319758,0.0739655643033294,0.07539250764954494,0.0813256961786527,0.09176512989065266,0.10099711884500003,0.07909082606930537,0.06552801073686826,0.06030867284768868,0.05285370691552096,0.07076550418493417,0.08188029773989226,0.08619808758039521,0.09233712907713777,0.09058669832501799,0.09095024529068864,0.0934277699741497,0.09533885603531142,0.0733425986945509,0.057752294711508965,0.04856794408618563,0.037667123431910164,0.036420162782287414,0.03258645814057486,0.026166009506772496,0.020438676836676654,0.02657166911358685,0.029526696898976083,0.02930376019284434,0.02993235650579043,0.03383978334246708,0.03686865018819161,0.03901895704296402,0.04140467333781435,0.04282128402853893,0.04449756578326948,0.046433518602006,0.0482998927688444,0.015587821595233507,-0.00785898307388028,-0.022040521238496966,-0.03870468008065278,-0.004261639652311343,0.01648726800408389,0.023542042888532923,0.034266149590269517,0.01836383281718561,0.00959604471150895,0.007962785273239528,0.004417834640161643,0.020953004184934156,0.03210772174413177,0.03788198731775447,0.04509794065582639,0.0272748800523473,0.016161003013778433,0.011756309540119782,0.005553895748371275,0.00152039670393416,-0.003094261295496994,-0.00829007824992219,-0.013330174131682616,-0.05541712449022765,-0.08757740010960492,-0.10981100098981442,-0.13470444634991038
11,-0.073284744188036,-0.06898115192301793,-0.11017081213731741,-0.1391705920887186,-0.15598049177722145,-0.17605666003800002,-0.15898197710526346,-0.15186183474795809,-0.1546962329660839,-0.15486332007600007,-0.1492642119285749,-0.14521015114375455,-0.14270113772153892,-0.13977813010624557,-0.12945640058512578,-0.12111715262369464,-0.11476038622195212,-0.10787241548728146,-0.09577641788853293,-0.08507590688217366,-0.07577088246820365,-0.06609193854875448,-0.08978960722611382,-0.10454403951207189,-0.1103552354066287,-0.1185627642699821,-0.08723635977445506,-0.06650304079606585,-0.056362807334814496,-0.04338416516389223,-0.06843282608391024,-0.08329210185037728,-0.08796199246329334,-0.09536212059947304,-0.09100685176222753,-0.08980143205071858,-0.09174586146494619,-0.09284629134965279,-0.0714672322996587,-0.05611153415598204,-0.04677919691862276,-0.035832904990694546,-0.06050935428588027,-0.07564071883814975,-0.08122699864750299,-0.08937087620540728,-0.05929355519349101,-0.03945757347210775,-0.029862931041257486,-0.017524130018095774,-0.021823082185011975,-0.021663961820778465,-0.017046768925395243,-0.01362411296453296,-0.004957472792886204,0.002304046044359292,0.008160443547203532,0.014393342176868332,-0.028788415648976082,-0.058729556183305436,-0.07543007942611973,-0.09567841537948504,-0.10165767781188623,-0.11146032697097005,-0.12508636285673655,-0.13768792535673657,-0.15161844882974854,-0.1651928782832695,-0.1784112137172994,-0.1917249642562815,-0.19457425757600005,-0.2002274937568503,-0.20868467279883224,-0.21639053761555094,-0.1602679815647305,-0.12124819933952094,-0.09933119093992232,-0.07283150810541912,-0.12524072336611985,-0.15650636310658095,-0.1666284273268024,-0.1824158955327785,-0.18363417990435332,-0.18875626531873654,-0.1977821517759282,-0.20576201789628756,-0.1920539212795988,-0.18415709676377842,-0.18207154434882636,-0.1784288662674491,-0.1743270837188503,-0.17034831784148505,-0.1664925686353533,-0.162603857211509,-0.18867411431198822,-0.2067168899903055,-0.21673218424646087,-0.22889843566694043,-0.09102650488561087,0.006642816140910265,0.06410952741262303,0.13234849550176025,0.390937361553096,0.598522126166114,0.7551027893408143,0.925349960306587,1.084885460982575,1.2472911450622997,1.4125670125457606,1.577073816704061,1.4696156669082818,1.435030306894066,1.473317736661413,1.4920789612565875,1.2162385390662815,1.019336390221024,0.9013725147208146,0.7622571926258923,0.6410509786587486,0.515046033631605,0.38424235754446134,0.25472449756953897,0.21485171819137128,0.1509586118618803,0.06304517858106598,-0.0184320274912097,-0.020352878841898236,-0.04359079119299998,-0.08814576454451493,-0.1269888486159642,-0.10196218013959281,-0.0940493602791856,-0.10325038903474258,-0.10786577587426349,-0.1372604358387186,-0.1600155095803174,-0.17613099709905983,-0.19402555638429342,-0.1981488883879641,-0.20596220962051504,-0.21746552008194617,-0.22798010090941928,-0.20098640399583834,-0.18404301981245508,-0.1771499483592695,-0.16756390372634727,-0.19595993504485035,-0.21417869978531145,-0.22222019794773057,-0.2329886864708923,-0.23248923264269467,-0.23500901486790424,-0.24054803314652096,-0.24527804956286828,-0.2331833938372455,-0.22559689542498204,-0.22251855432607787,-0.21823225611570662,-0.2121051828984851,-0.2064713438577965,-0.20133073899364076,-0.19605797243020362,-0.18248095056457486,-0.1711290472009102,-0.16200226233920967,-0.15227925877184434,-0.1849920062774013,-0.2063341285527606,-0.21630562559792216,-0.22932387249095218,-0.21630813891234132,-0.2102681893768743,-0.21120402388455098,-0.21027070269129344,-0.22883416342906593,-0.24217347719341326,-0.2502886439843353,-0.2598036167379282,-0.2663621191537845,-0.2737128054090839,-0.28185567550382634,-0.2897862805785331,-0.2500981822859581,-0.22316947710526347,-0.20900016503644914,-0.19141198388739528,-0.16348609945416764,-0.13833019426752696,-0.11594426832747315,-0.09281612868524544,-0.14324719794268873,-0.1739681365795929,-0.18497894459595798,-0.20127106619480845,-0.14133532446696398,-0.10182477715825744,-0.08273942426868877,-0.058181157029263436,-0.11059802370320969,-0.14238946540779052,-0.1535554821430059,-0.1702480648423115,-0.11417685634913766,-0.07760264694421551,-0.06052543662754505,-0.03822402115034723,-0.10075285668208993,-0.14055149496225758,-0.1576199359908502,-0.18077891501680246,-0.14576069365499997,-0.12633100615499995,-0.12248985251680243,-0.11447176381914975,-0.10671670086831742,-0.09889116038103597,-0.09099514235730541,-0.08311800873255093,-0.07356206924788025,-0.06445596443762276,-0.05579969430177846,-0.04702289132819763,-0.02732990446631732,-0.010561900261736491,0.003281121285544859,0.017907889573724644,-0.03335325313617971,-0.06695978330317373,-0.08291170092725743,-0.10359415772489831,-0.06117850131824549,-0.035669933388610735,-0.02706845393599404,-0.013936733779598814,-0.0026159060344071723,0.009190148869946117,0.021481430933461058,0.03364269677153299,0.016148107427101783,0.006599780529676622,0.004997716079257496,0.0012664570233173454,0.012136843514760493,0.019094730873616787,0.02214011909988623,0.026233858309119788,0.01288045487695206,0.004201999225778414,0.00019849135559884667,-0.005057664997155753,0.03750373976786232,0.06725246764734735,0.08418851864129934,0.10455771605961083,0.09053257713266469,0.08572337285363472,0.09013010322252098,0.09206743134500009,0.06581859093720957,0.04712221162483232,0.03597829340786833,0.022810699339520898,0.06525047892319767,0.09279030764359887,0.1054301855007245,0.12206249315892821,0.08563928457256284,0.06343225871794608,0.0554414155950779,0.04364135778978441,0.06788462395124559,0.08247011056328152,0.08739781762589222,0.09491331891944922,0.056586188475209576,0.03054255418402991,0.016782416045910204,-0.00026907496665271556,-0.00824439482705992,-0.0186516674180539,-0.03149089273963466,-0.04367847829102403,0.008092535395640806,0.0427258940674432,0.060221597724383145,0.08230932220271867,0.026999887471694534,-0.007571040952718644,-0.02140346307052088,-0.040792751205407256,0.001139175606580908,0.026640132394658747,0.03571011915882626,0.049182771071760535,0.01403006921362871,-0.008093508369868305,-0.01718796167873051,-0.029773558315065854,-0.04834534679802997,-0.06531314000995214,-0.08067693795083236,-0.09647052512925161
12,-0.033359154951401196,-0.033275640877365294,-0.026487034660712568,-0.021495052468850293,-0.018299694301778455,-0.014622932178161668,-0.02133238145874253,-0.02525885378114972,-0.026402349145383225,-0.028291540938113792,-0.019633017808137726,-0.013800746373694606,-0.010794726634784427,-0.007031415036449109,0.0016921321987125827,0.009086588300718573,0.015151953269568861,0.021573447134215586,0.021023102031718567,0.022340855550227544,0.02552670768974252,0.028212004312377248,0.033344831552838336,0.0378218449408024,0.04164304447626945,0.045639968803898215,0.04314011909988624,0.0423810747510599,0.04336283575741917,0.04387814937467669,0.03267572623785031,0.024613061201401196,0.019690154265329343,0.013925951681832333,0.01186245462206588,0.008807356505790427,0.00476065733300598,0.0009796568625269667,-0.016733467828688647,-0.030713491086107804,-0.040960412909730515,-0.052207616247802444,-0.03780415211896407,-0.030273763623203585,-0.029616450760520985,-0.02711750283243715,-0.02769736558137726,-0.027452263495760493,-0.026382196575586832,-0.02553317831661677,-0.027967683187622765,-0.029522370687622763,-0.030197240816616767,-0.031107857299658703,-0.025790334620514974,-0.022141636800227543,-0.020161763838796413,-0.017734730604125754,-0.015504822766389224,-0.013222095337736533,-0.010886548318167676,-0.008565154265329345,-0.007549604413323354,-0.006184154662263473,-0.004468805012149703,-0.0028472107574191554,-0.004379562446101793,-0.005066816866275452,-0.004908974017940132,-0.004977574300227541,-0.011104381801778453,-0.01560789757134731,-0.018488121608934118,-0.021803305355185633,-0.029117926743485095,-0.03536090204541918,-0.04053223126098788,-0.04599070717997016,0.027127228908592798,0.07919067885559883,0.11019964266104797,0.14685013902517952,0.2616948292397367,0.35558744835926964,0.42852799638377836,0.5070826349379582,0.5187518837078625,0.5483430186559043,0.5958560397820836,0.6385669059799886,0.4293077901492874,0.28756382752003573,0.21333501809223365,0.12101557788723961,0.014204594529263412,-0.08872339154379044,-0.187768380331922,-0.2878538151067607,-0.2514133218108263,-0.2515548406873652,-0.2882783717363772,-0.3151997821662696,-0.2990493883144192,-0.2944400496364131,-0.3013717661322515,-0.30521106621445526,-0.2771248698398563,-0.25759308445882034,-0.2466157100713474,-0.23334618816642527,-0.2093634516818324,-0.1882513123922036,-0.17000977029753897,-0.15099905400268865,-0.14242849052747908,-0.13106049653538926,-0.11689507202641919,-0.10347921676532937,-0.08790966114065268,-0.07291718778913772,-0.05850179671078448,-0.043931776903371245,-0.05511574494765272,-0.05939895274519166,-0.056781400295988035,-0.056012900982059875,-0.059675986558137745,-0.062151632541748526,-0.06343983893289222,-0.06504621880389821,-0.06424904321192217,-0.06409589836521558,-0.06458678426377842,-0.06490510264424554,-0.05269399076271856,-0.04384012960151497,-0.038343519160634755,-0.031947336100455095,-0.03516452812842516,-0.03580582406498805,-0.03387122391014373,-0.032626833032778454,-0.033009981001059896,-0.03295703125000001,-0.032467983779598815,-0.032095788340916184,-0.03303375396934132,-0.033620662997880246,-0.03385651542653294,-0.03418643318762276,-0.033026016617335334,-0.03226493392759282,-0.03190318511839521,-0.03143443511839521,-0.03086887023679042,-0.03032924682452696,-0.0298155648816048,-0.02929493194292216,-0.029936583483610786,-0.030266801836676654,-0.030285587002119765,-0.030387820438682645,-0.028611899105185634,-0.027339227825586832,-0.026569806599886236,-0.025665539928652698,-0.02696216934882635,-0.027669070438682636,-0.027786243198221552,-0.028061433187622765,-0.025366831895874256,-0.023467983779598807,-0.02236488883879641,-0.02104857247725151,-0.015458453666502992,-0.011013496770628739,-0.007713701789628748,-0.004107061598335321,-0.0057914363091976055,-0.006058087849886233,-0.004907016220401199,-0.00413582236945509,-0.004791826789628749,-0.00506541458561677,-0.0049565857574191555,-0.00495022515484432,-0.00044858268974251624,0.002848552630544913,0.004941180806017968,0.0073565556982215525,0.013602253572407191,0.018821619496820364,0.023014653471461085,0.027482692263209593,0.030825901486790423,0.03447050788478443,0.03841651145719162,0.042281755900113766,0.04764660446722157,0.05260963532028744,0.057170848459311384,0.06183972833031739,0.06275654037948505,0.0646787159714611,0.06760625510624553,0.07026440789163475,0.06959801185412577,0.0698224259889102,0.07093765029598804,0.07181418273679044,0.0728044821918623,0.07376429786733535,0.0746936297632096,0.07563112976320961,0.07655251899894014,0.07747822510094612,0.07840824806922757,0.07933711433667667,0.07942170996355091,0.07973252722676048,0.08026956612630541,0.08074598912108384,0.09270825770344315,0.10159290323622161,0.10739992571941917,0.11403159481335934,0.10198436025953894,0.09494212285363475,0.09290488259564673,0.08952655739375454,0.08697082321722159,0.08419467643974254,0.08119811706131738,0.07826061706131739,0.0758780648816048,0.0733468148816048,0.07066686706131736,0.06802676270189223,0.06305915466226347,0.058715199354125745,0.05499489677747904,0.05110748695507186,0.046973647914383236,0.04290583938372455,0.03890406136309582,0.034884590520628755,0.03465666061627546,0.033412790379485045,0.03115297981025749,0.02916538963266468,0.02685973060412575,0.024639297867335333,0.02250409142229342,0.020346048661203597,0.01874310401638922,0.016991421279598802,0.015091000450832347,0.013230433873694613,0.015431069644814378,0.01654350952641917,0.01656775351850898,0.0168835787204012,0.015885056149053892,0.01523871200211976,0.014944546279598805,0.014556014632664675,0.014424939881604794,0.014224879763209583,0.013955834277479044,0.013705273365215572,0.012625916516389222,0.011768634869455091,0.011133428424413179,0.010438717108365268,0.011898327475700597,0.01278068908773653,0.013085801944473067,0.013545588139023946,0.020930468460862287,0.026459775403784445,0.030133508967790414,0.034304441920173664,0.032022916859425155,0.03147032271249102,0.03264665947937127,0.03335973060412576,0.03702980744765271,0.03990755699682037,0.04199297925162874,0.04429070496510181,0.03960040579916767,0.03678254225635928,0.035837114336676655,0.03438996880389822,0.03158969345401198,0.029151988145874254,0.027076852879485035,0.02490456726320958,0.021620573109425147,0.01863446036048503,0.015946229016389226,0.013178180590425139
13,-0.01512638214481438,-0.01515722152853893,-0.015201873015329343,-0.015242823560257485,-0.015280073163323351,-0.01531831443077245,-0.017342477879485035,-0.018834515083497018,-0.01979442604280839,-0.020896919799658697,-0.01684651968501197,-0.01417683332191616,-0.012887860710371256,-0.01122892696411974,-0.020864021939173673,-0.0274728910390599,-0.03105553426377844,-0.035449052267862324,-0.016556115311886214,-0.003902765157041894,0.002510998196670639,0.010596653794850325,-0.0005641572055628892,-0.00656789302373056,-0.007414553659652685,-0.00964304842596409,-0.0018192859593113748,0.003310982299658692,0.005747756350946111,0.008906250000000003,0.01170441725635928,0.014599133678652699,0.01759039926688026,0.02055579458406587,0.033285260878916194,0.0433984522404611,0.05089536866870058,0.05909331385249703,0.053385276197652716,0.051403335414383244,0.05314749150268861,0.05389324294333536,0.029943470122143698,0.012610843083574831,0.0018953618276287693,-0.010593178296970082,-0.004817137594095803,-0.003935076574035914,-0.007946995236790419,-0.010647575995760484,-0.01147641220401198,-0.012806780853065872,-0.014638681942922158,-0.01633619782028743,-0.016227609176532938,-0.016602964780658685,-0.01746226463266467,-0.018191892014269462,-0.018379617458251493,-0.01871254508879641,-0.019190674905904204,-0.019629897914383243,-0.022529642411203598,-0.024770092162263477,-0.02635124716756287,-0.028109059667562872,-0.031941926890574866,-0.035218784876305406,-0.0379396336247545,-0.0408094645993174,-0.033736488488910185,-0.029327679507419165,-0.027583037654844322,-0.025124534371574855,-0.025816276089856295,-0.025663912204011985,-0.024667442714041934,-0.023897150639023958,-0.027073808133724557,-0.0291928836786527,-0.03025437727380838,-0.031599249098335336,-0.03877417279379046,-0.04438693879859882,-0.04843754711276042,-0.052906734318580895,-0.027988609877209643,-0.010944791859425146,-0.0017752802652273893,0.009504145376125636,0.11709696912728747,0.19888269563462882,0.25486132489814967,0.3177549450271437,0.4117968613178564,0.49749261680643125,0.5748422114928681,0.6544281532261381,0.576509923097533,0.5407948086238503,0.5472828098050897,0.5424625202285153,0.32010006927256873,0.15602786477794595,0.05024590674464692,-0.07115487575457491,-0.11343589636089826,-0.17691699327176647,-0.26159816648717954,-0.34059879637731166,-0.28536121342816173,-0.26609265120269454,-0.2827931097009102,-0.2898556981436768,-0.2800035801267965,-0.2746837440459881,-0.27389618990125153,-0.27189421447187434,-0.2438700470734671,-0.22281850499844913,-0.20873958824682043,-0.19279236217066478,-0.16845523848891023,-0.14636618109515573,-0.12652518998940124,-0.10608183133724552,-0.09131701282933533,-0.07503063407558684,-0.057222695076000044,-0.039822456915520936,-0.04738466027323952,-0.04825819758504792,-0.04244306885094612,-0.03842016278228743,-0.04205922981025749,-0.043645277334556906,-0.04317830535518564,-0.043261438293868276,-0.042652904662263486,-0.04222970252959882,-0.041991831895874264,-0.04170430183667666,-0.04100704627959881,-0.04041957633879641,-0.03994189201426947,-0.03943479072252097,-0.04004805183667666,-0.04036111274894013,-0.04037397345931138,-0.04046727257134732,-0.03870996597146109,-0.03744852767759283,-0.03668295768974253,-0.035784520189742534,-0.03460937500000001,-0.03350837341226348,-0.03248151542653294,-0.031434790722520964,-0.03125048576426947,-0.030835096131604796,-0.030188621824526952,-0.029604066469341328,-0.02821512420613174,-0.027041716765329342,-0.026083844146934137,-0.025068219146934138,-0.023925856397994015,-0.02281745292653294,-0.021743008732550903,-0.02065946517759282,-0.020912379763209588,-0.020807191469341322,-0.020343900295988027,-0.01997656250000001,-0.018990449751059884,-0.018170137251059884,-0.017515625000000003,-0.01681668670613174,-0.016289267808137727,-0.015715890426532934,-0.015096554561317364,-0.014489533234670662,-0.013142923661203596,-0.011994486161203594,-0.01104422073467066,-0.010040855261089823,-0.007925630954011978,-0.006108328323467067,-0.004588947369455089,-0.002989738542808387,-2.596160518562613e-05,0.0025721804090838365,0.0048046875000000025,0.0071351661733533,0.007870477825586825,0.009033213192922156,0.010623372275359286,0.01209900351850898,0.015538877327706585,0.01845243392759282,0.020839673318167676,0.023367938979940116,0.03292291628114972,0.040595091873125766,0.04638446575586824,0.05267833483610781,0.046217387991029944,0.043174083772748506,0.043548422181263494,0.0430070060079102,0.039907938132173644,0.03749419096461077,0.035765764505221585,0.033853706915520934,0.0539079072055629,0.06807626643599403,0.07635878460681436,0.08621840913633536,0.08653489592971257,0.08940845877274849,0.0948390976654431,0.09958457009564671,0.10059931885094611,0.10261371200211977,0.10562774954916768,0.10837393318762278,0.1089749347753593,0.1101507361612036,0.1119013373451557,0.11349792138739526,0.10895516334091618,0.10605743704916766,0.10480474251214972,0.10311126304492815,0.10261892524894012,0.10180474251214972,0.10066871483455689,0.09961892524894013,0.09806846472676048,0.09665215857770659,0.09537000680177847,0.09405190846991021,0.10236131266169463,0.10809103532713775,0.1112410764662395,0.1150823411870539,0.10344223287793414,0.09595034596991019,0.09260668046298205,0.0881515023816048,0.08572396324682038,0.08275311989375453,0.07923897232240723,0.07587040267759286,0.07338455024894014,0.07066217445507186,0.06770327529598805,0.0648077523816048,0.06061358184197606,0.05676738288478444,0.053269155510029954,0.04967768943077246,0.049299098513209585,0.04805962029068864,0.045959254763209584,0.044089563293868275,0.042693349307077855,0.041170267411203595,0.03952031760624551,0.03790436195507186,0.03502427886839521,0.03248291770719162,0.030280278471461086,0.02798687896934133,0.024970843353065875,0.022148437500000007,0.019519661410143718,0.016839002381604795,0.01355039076956886,0.010424679561317365,0.00746186875685031,0.004455408920742509,0.0075388370560179685,0.008990484627365278,0.008810351634784431,0.009067452926532937,0.00875084136839521,0.008587955705071856,0.00857879593656288,0.00852844543868264,0.007572165668622749,0.0068586289154431105,0.006387835179143725,0.005851998647502981,0.015105934378425154,0.02173670853750899,0.02574432112475449,0.030454807736790424,0.035992893312868285,0.04130922441487427,0.0464038010428084,0.051557796602988065
14,0.0009994243472754407,0.0008411910185089785,-0.001996218514760493,-0.004115744947652704,-0.005517388280167651,-0.007111387809688636,0.002249734284329351,0.008675440386335342,0.012165730496329335,0.016442562950832348,0.014237931041257475,0.013770002273808379,0.015038776648485044,0.015842202818736523,0.02491619072937127,0.03177408830071858,0.03641589553277845,0.0416515023816048,0.04626999687842517,0.0510538461316048,0.05600305014114373,0.06090794747725153,0.061329617169113795,0.06295256408773653,0.06577678823311976,0.06827913111570662,0.059669541462491024,0.05403738515859282,0.051382662204011983,0.047930138387964075,0.04864265794553295,0.04823915749470062,0.046719637035467054,0.04549915323622158,0.03296340659303593,0.02345957549102994,0.016987659930203604,0.009703345048598815,-0.00014819192017365753,-0.009311843803898207,-0.017787610602574836,-0.02644769565427547,-0.022470898365215573,-0.021880143494209574,-0.024675431041257478,-0.026563431256850314,-0.022448938293868268,-0.019942808530658686,-0.019045041967221565,-0.017716315783269473,-0.011727293844095803,-0.006986994389023948,-0.003495417418053901,0.0003307537341018106,-0.004837114336676649,-0.0075950368609760555,-0.007943013838796408,-0.008936733779598804,-0.009936172867335332,-0.010934079514269465,-0.0119304537204012,-0.012927238542808386,-0.013388531646934133,-0.013993309324526946,-0.014741571575586825,-0.015451387251059882,-0.014854762937131727,-0.014608198163323356,-0.014711692929634756,-0.014721389524868256,-0.027497245055449124,-0.03685241860885631,-0.0427869101850898,-0.04963797073467069,-0.05147335127210184,-0.05465267921828145,-0.0591759545732095,-0.06333912030529348,-0.018393457596550956,0.013393534190233555,0.03202185505506005,0.05417603116689209,0.1888711016493894,0.29341093036979066,0.36779551732809584,0.4502601769641199,0.5280310295640303,0.6070595839686947,0.6873458401781135,0.7672950962046292,0.5908453885154072,0.4830975760939939,0.4440516589403892,0.3865971244312877,0.2222999025012934,0.08663109238289814,-0.020409305923898016,-0.13512066405619774,-0.14455574891699405,-0.18219952618304788,-0.24805199585435925,-0.30634596917614393,-0.2840046616796348,-0.2832695125598443,-0.3041405218167724,-0.3192221783851199,-0.28722193030128745,-0.26783724054712577,-0.2610681091226348,-0.2509186490316408,-0.22979339410673655,-0.21160909454386825,-0.19636575034303597,-0.18033437952797013,-0.15289383083251498,-0.12851036213641318,-0.10718397343966471,-0.08503844262589219,-0.08696168358455691,-0.08243571658398807,-0.07146054162418565,-0.06221342672888025,-0.05792426894504192,-0.052306630557077856,-0.04536051156498804,-0.03877035787793413,-0.03882825516014372,-0.03710481255389822,-0.033600030059197615,-0.030572556149053902,-0.02809829231025749,-0.025475796279598808,-0.02270506805707785,-0.019974058530658687,-0.01802044776638922,-0.01585853363160479,-0.013488316126305397,-0.011173913340916167,-0.01042770956661676,-0.00926130813372455,-0.007674709042239537,-0.006200701574035915,-0.016482782151664682,-0.023614828431263488,-0.02759684041283232,-0.03242290154068862,-0.032029437103065876,-0.033034540325586836,-0.0354382112082515,-0.03746713701582037,-0.03302999801532935,-0.030325435858365273,-0.029353450544928154,-0.027917222665443126,-0.027557697369455098,-0.026909670485730546,-0.025973142014269465,-0.02511391731025749,-0.0250843299112036,-0.024832441866275458,-0.024358253175473063,-0.023943629763209587,-0.023108889235730547,-0.02238671875000001,-0.021777118306017973,-0.02113735481025749,-0.02143688407558683,-0.021484730604125757,-0.02128089439587426,-0.02114449637369461,-0.024478280113095816,-0.026882231451892225,-0.028356350390083832,-0.030079617169113785,-0.027100365527479048,-0.02538114989905389,-0.024921970283838323,-0.024125165036449115,-0.018736338192922156,-0.014577939827706585,-0.011649969940802397,-0.00839230773679042,-0.006018128969341319,-0.0034072215285389233,-0.0005595854143832311,0.0022246194429221544,0.0055333084767604755,0.008701462399053896,0.01172908120980241,0.014794356290197604,0.025856475154844325,0.03477584618550301,0.041552469382173655,0.04890324013054493,0.052626792761089836,0.05732225555707786,0.06298962851850899,0.06839657893599405,0.0637233124461018,0.06175103193607186,0.06247973740590421,0.062484715863664664,0.06770538878489821,0.07152852058667666,0.07395411126900002,0.07675417196567066,0.08728790040378445,0.09574939881604794,0.10213866720246109,0.10908318795083237,0.11171921562842518,0.11550970054492818,0.12045464270034134,0.12509024897089224,0.12109027450211979,0.11940419691862279,0.12003201622040124,0.12003982872040127,0.11979779151638928,0.11962270133879646,0.1195145581876228,0.11938847663478448,0.12144174171828145,0.12291105263054493,0.12379640937157485,0.12483823616120358,0.12453237182452695,0.12458762023679043,0.12500398139799404,0.12532358268974256,0.1252663710845569,0.12531012619080242,0.1254548480084791,0.12557251587736531,0.12221132798043119,0.11978229667653296,0.11828542196567068,0.11653877664848507,0.10637006720931139,0.09845804305022757,0.09280270417123354,0.08654268829386827,0.08081050193077247,0.07493688407558685,0.06892183472831141,0.06294468183512578,0.06407838532028744,0.06330674058137727,0.06062974761839521,0.05846329117335329,0.05428670882664671,0.05064873809197606,0.047549378969341326,0.04430569930022755,0.04450702614375449,0.043785266274299406,0.042140419691862274,0.04074291344871259,0.03591441810412575,0.03200525351850898,0.029015419691862276,0.025779251930772455,0.024557602085616775,0.022796163791748515,0.020494937049167668,0.018338346185503007,0.011752824697161674,0.0063540315930359255,0.002141966873125758,-0.0023880807589700655,-0.0018692258409161652,-0.0027032202838383193,-0.0048900640877365285,-0.006714412997880244,-0.009254256458742529,-0.011602383732550903,-0.01375879481930537,-0.015966576103556902,-0.0046847759820598705,0.002982501695532945,0.007035256929221542,0.012056520532778442,0.013762299798107785,0.01635646041438324,0.019839002381604794,0.023083503283269476,0.022005924455071862,0.022086443400113776,0.023325060118395215,0.024253365473580844,0.02639864280813773,0.028217833483610785,0.029710937500000006,0.031291416173353306,0.03151276542653294,0.032098292310257494,0.03304799682452696,0.033900120236790426,0.035899669348826366,0.037591766671233554,0.03897641220401199,0.040443439195532956
15,-0.016818820330886223,-0.016641035616275456,-0.012608108274868256,-0.00960816328701796,-0.007641200652724563,-0.0053974512309999945,-0.010122681202952101,-0.01298057877429941,-0.013971143945041915,-0.015462059324526947,-0.01677377296828144,-0.01813350357240719,-0.019541251136904192,-0.020936132595646723,-0.01856227455601797,-0.01719824722146108,-0.016844050591976044,-0.016219270640574858,-0.011468694987850298,-0.007823622961431135,-0.005284054561317365,-0.0024482673573053876,-0.0010655648816047922,0.0007064904735808351,0.0028678987082514946,0.004924980153293408,0.00925508308667665,0.012976131747880244,0.01608812613690419,0.0193633161263054,0.018239853962491014,0.01829500709091617,0.019528775511580856,0.020446734916502993,0.02947193964636529,0.03632481453856888,0.04100535959311375,0.04626797867335332,0.041572425988910186,0.0395451573869042,0.04018617286733534,0.04011222378270063,0.028904231794928147,0.020679597611544906,0.015438321232550904,0.009397656539137718,0.007959760663323354,0.0052885565998862325,0.0013840443488263518,-0.0021900039693413184,-0.003983759075586825,-0.006254542310257486,-0.0090023536733533,-0.011622345734670662,-0.015401407097766476,-0.01886989677747905,-0.022027814773808385,-0.02526895020189223,-0.025419536067107798,-0.02639823219186228,-0.02820503857615568,-0.029789953485161697,-0.019347306041257478,-0.012127434216730532,-0.008130338011580859,-0.0032697016818323318,-0.005065079117335331,-0.0050769830396287475,-0.003305413448712582,-0.002011724145383222,-0.008185051042808386,-0.012357596979371265,-0.014529361955071861,-0.017237234573467073,-0.01997768432452695,-0.022709405059197607,-0.02543239677747905,-0.0281577274286527,-0.03208754508879641,-0.03569462142759282,-0.03897895644504192,-0.04234976973891019,-0.05183337707282041,-0.05967906618020361,-0.06588683706105979,-0.0725334868079821,-0.03464452980431142,-0.008688852663892199,0.005333544613275584,0.022553454592856167,0.1303654094793713,0.2139032990923893,0.27316712343191024,0.3389351639584851,0.4567386217262937,0.5605992314664971,0.6505169931790956,0.7441707297608806,0.6404647711060122,0.5896411834082576,0.5916999666676167,0.5795889613351741,0.33556164822820955,0.15367612250103585,0.03393238415365295,-0.10246219593837139,-0.1288594393572276,-0.18473038030723354,-0.2700750187883892,-0.3475222038181141,-0.2965157055433773,-0.27992826797487425,-0.2977598911126048,-0.30636895472986236,-0.3090000589618444,-0.3132329525834971,-0.3190676355948203,-0.3244731204327367,-0.2877440406686228,-0.2623048834630599,-0.24815564881604796,-0.2309812885368624,-0.19152011769349103,-0.1580306797426587,-0.13051297468436532,-0.10139514862010177,-0.10118706924788026,-0.09323264659613775,-0.07753188066487429,-0.06390674115965272,-0.0565528799984491,-0.047518634869455095,-0.03680400577267069,-0.026539634203029936,-0.03311410248255091,-0.035176617223012,-0.03272717842441318,-0.03148671393289222,-0.0335726111612036,-0.034767212452952105,-0.03507051780813773,-0.035612645189742526,-0.035532371824526954,-0.03561887023679042,-0.03587214042653294,-0.03608072425317964,-0.03783920768974252,-0.03918239677747905,-0.04011029151638923,-0.04114946404068864,-0.040074649502119766,-0.0395662760898563,-0.03962434380389822,-0.03953063407558684,-0.04138128005919761,-0.042710937500000004,-0.043519606397994015,-0.04446787375529941,-0.0479218548641557,-0.05070443199682037,-0.05281560515329342,-0.05510668046298206,-0.052535231397994014,-0.05126669181237725,-0.051301061706131745,-0.05098631805707786,-0.04998325317547307,-0.04916462341226348,-0.048530428767449105,-0.047846814881604804,-0.04651519424788025,-0.04535720649894013,-0.04437285163478444,-0.04334197197937128,-0.03895976066332336,-0.03547553595931138,-0.032889297867335326,-0.0300624449878503,-0.02848486076426946,-0.026572536013209587,-0.02432547073467066,-0.022168098910143715,-0.019472375793868266,-0.01692090347146108,-0.014513681942922161,-0.01206780853065869,-0.00973856170613174,-0.007378064881604793,-0.004986318057077846,-0.002602944644814374,0.00040359573467065946,0.0032431590285389236,0.005915745236790419,0.00863307282028743,0.00962318710306587,0.011076106794928145,0.012991831895874252,0.014783548661203594,0.015856966314497005,0.01712285163478443,0.018581204622065882,0.01998798605340718,0.028091020586676653,0.03439979950897007,0.038914322820287436,0.04390961547358084,0.051110066072407194,0.05771964638054493,0.06373835639799402,0.06991538963266468,0.07623338333561677,0.08251360679492817,0.0887560600105988,0.09500863373255092,0.09819521721616169,0.10220333030813773,0.10703297300847903,0.11164248751370064,0.1062364536126048,0.10351407781873653,0.10347536013209582,0.10271755842286229,0.11166867456286829,0.11801829400579043,0.12176641675162876,0.12621160843656296,0.12468826622040123,0.12476418784303596,0.1264393733044671,0.12768603731180847,0.1223803434069641,0.11883034851320962,0.11703605263054492,0.11477131861570664,0.10257755474265867,0.09304426640174251,0.08617145359295814,0.07858576851385628,0.09884172100416172,0.11163752919178446,0.11697319307672455,0.12430779660298809,0.1107185648277066,0.10273585782403594,0.10035967559197606,0.09648122957501801,0.08613253204386827,0.07751753318077247,0.07063623298573055,0.06329038963266467,0.055591676782778446,0.04798751502959881,0.040477904373125775,0.032942958826646725,0.028126778020628743,0.02258210639799401,0.016308943958742533,0.010230980045496997,0.01441062187842516,0.015841746535389237,0.014524354016389225,0.013943424455071863,0.012491215971461078,0.011272465971461079,0.010287174455071858,0.009239327926532936,0.008078836208251495,0.0069485276775928155,0.005848402334556892,0.004740189430772453,0.006790089040688628,0.007993774952952101,0.008351247167562872,0.008935461659083838,0.006767588192922155,0.005337134472520957,0.004644100497880242,0.003753475497880242,0.0025228765877365277,0.001383373412263473,0.00033496597146107717,-0.0007378504978802416,-0.001976802684443121,-0.0031712389397425176,-0.004321159263778431,-0.005483007595646715,0.0007155696987125807,0.004941926890574856,0.007196063979940111,0.009978655853065867,0.010501607588796407,0.011630028074526948,0.013363917310257486,0.014935571683383244,0.0128367037204012,0.01172134925317964,0.011589508281718562,0.011194135663323354,0.010559304958251496,0.009988636854125748,0.00948213135094611,0.008958433530658684
16,-0.04995878913478444,-0.05000674568762276,-0.04797551582346707,-0.046501402280658695,-0.045584405059197614,-0.04451812896934132,-0.04282526542653294,-0.041300295485730554,-0.03994321914693415,-0.03854115585306588,-0.037256765823467076,-0.03594084533773654,-0.03459339439587426,-0.033254392014269475,-0.03167105376744911,-0.030153185118395216,-0.028700786067107794,-0.027230844489970058,-0.029234655456131742,-0.030307677233610796,-0.0304499098224072,-0.03084154662263474,-0.03370172271934133,-0.03590045570507187,-0.037437745579826355,-0.039152268602006005,-0.040044180462982054,-0.04115651032028744,-0.042489258173922156,-0.04376294520344314,-0.03367395361260479,-0.026629582581946108,-0.02262983211146709,-0.017814278020628745,-0.019771850047047904,-0.01991456840011377,-0.018242433079826342,-0.017056586335694585,-0.026843579568167675,-0.033690409190233556,-0.03759707520189223,-0.04229155567857489,-0.03861491831971859,-0.03718131522464072,-0.03799074639334128,-0.03819915834246708,-0.022009165163892203,-0.010213111396443101,-0.0028109970401197764,0.005768469833005981,0.013567042310257488,0.021574854810257487,0.02979190733300598,0.03795289416063475,0.03877629167808385,0.041565790325586834,0.0463213901031437,0.05055017467066471,0.040275265137395225,0.03388660872570061,0.03138420543558082,0.02784048375995213,0.001983073398562861,-0.017895402099317385,-0.0317949427336886,-0.047296534136335354,-0.052724278579257496,-0.060851302179712574,-0.07167760493770059,-0.0817806380252815,-0.07090494300317965,-0.0656504812362994,-0.06601725272464072,-0.06487781930177847,-0.05971415267759282,-0.055628776089856294,-0.05262168953856887,-0.049325676042808395,-0.046490805355185634,-0.043532371824526954,-0.04045037545083235,-0.03740148764114372,-0.03989052971616169,-0.04089568795083235,-0.04041696234515569,-0.04033584221616169,-0.03648738486945509,-0.033648382487850306,-0.031818835071347314,-0.02971880501214971,-0.027332161410143718,-0.025022315675473063,-0.022789267808137732,-0.020535642014269467,-0.015769987533347293,-0.011677429110485027,-0.008257966745682669,-0.004658148835694588,-0.02142985253644911,-0.03274302347301199,-0.038597661645383224,-0.04591490926377844,-0.060651356035311424,-0.07339983438527549,-0.08416034431367059,-0.09545352877520367,-0.06275527220866473,-0.041844486739479034,-0.032721172367646593,-0.020439414634473158,0.06766877524208982,0.13545933386089826,0.18293226122195214,0.2358492814706347,0.3434252469272816,0.4363553921563175,0.5146397171577424,0.596848377861647,0.5607036923659643,0.5562716904059821,0.5835523719817004,0.6023356656142042,0.3773198148866467,0.21762974800576637,0.12326546497156307,0.011397190910712597,-0.06525559688617971,-0.1513443457885689,-0.24686905579645496,-0.3398654076463117,-0.2857285163478443,-0.2710158587307424,-0.295727434795006,-0.30987531928213186,-0.30491481253425157,-0.30507438378644913,-0.31035403303872455,-0.31426176152569474,-0.2675546835503054,-0.2344098020915629,-0.21482711714946717,-0.1916104526031438,-0.19321098711676654,-0.18816177318387428,-0.17646281080446707,-0.16654564315117362,-0.15440038595246108,-0.14285214354810782,-0.13190091593811382,-0.12078971869610182,-0.11558700431237726,-0.10880111671828147,-0.1004320559138144,-0.09248720509254492,-0.09622598145189222,-0.09683413934352694,-0.09431167876744909,-0.0926280648816048,-0.0895858824878503,-0.08690772742865269,-0.08459359970401199,-0.08218193114905391,-0.08162079315802398,-0.08056380699682038,-0.07901097266544313,-0.07759100045083238,-0.07232438918183236,-0.06808848174102997,-0.06488327812842518,-0.06140189825741918,-0.06238056885094612,-0.06216417252429943,-0.06075270927747906,-0.05966146324682038,-0.057515980604125765,-0.05565297981025749,-0.05407246086521557,-0.052416251136904186,-0.053535772174413174,-0.053911538394814384,-0.053543549798107784,-0.05337484970401199,-0.05106091254704791,-0.0493217899286527,-0.04815748184882637,-0.04683915267759284,-0.04739269821722157,-0.04744467643974252,-0.04699508734515569,-0.04667989280813773,-0.04421471358985629,-0.0423256210306587,-0.04101261513054492,-0.039545247275359297,-0.036981365130544924,-0.03471129310412576,-0.032735031196101806,-0.03068004310412576,-0.028931535273239536,-0.027100906303898213,-0.025188156196101798,-0.02329741038103595,-0.010787295270137706,-0.0011226315861856163,0.0056965806708203235,0.01327822933977847,-0.0007955827436407267,-0.00906683160673654,-0.011535517249508973,-0.01555899502119759,-0.027452333248371277,-0.037236948721952115,-0.044912841441940105,-0.05315376472081443,-0.03340717191177245,-0.021159811436640693,-0.016411683295419175,-0.009654141906473047,-0.013667191738832359,-0.014794270351437138,-0.013035377744287386,-0.012049778794850325,0.011959680119946125,0.02979991435037727,0.041470923896443114,0.054794972214610785,0.07055187754329943,0.08565690080071858,0.10011004198686825,0.11473785444757492,0.10523342360730539,0.10219520787108381,0.10562320723891017,0.10731858949152098,0.10431760322252095,0.10257500510624552,0.10209079514269463,0.10126940108985631,0.10250396126214972,0.10318763016014373,0.10332040778383833,0.10360079627959881,0.10268527648679043,0.10209019935412578,0.10181556488160481,0.10145506805707788,0.1007936598224072,0.10021288055707787,0.09971273026108987,0.09919097549788031,0.09798181601850901,0.0969568460777066,0.09611606567547307,0.09522593183512576,0.10073704400579045,0.10453294747725153,0.10661364224950899,0.1091539258075689,0.1007452175052994,0.0952702827299401,0.09272912148149104,0.08940185798573058,0.08746364677747906,0.08515324013054493,0.08247063804492816,0.07988776542653295,0.07726192405813774,0.07464759613160482,0.07204478164693415,0.0694388821448144,0.06587318710306589,0.06256466850105989,0.05951332633879641,0.056393073957191626,0.05375048576426947,0.05097990783773654,0.04808134017759283,0.04521706726320961,0.040878235313437136,0.036934510266389234,0.033385892122065886,0.029731405402233537,0.03016798888584431,0.029508373412263478,0.02775255898149103,0.02629047017604191,0.032686768655904204,0.036977418608856304,0.0391624200348982,0.04191162828326947,0.03926246483455689,0.038059790722520956,0.03830360594716167,0.03815983552217966,0.032965144341976046,0.02912384329916767,0.0266359323937545,0.02378538169398204,0.022359395135844312,0.020551697766389224,0.018362289585616774,0.016275160508479037
17,0.009304331895874254,0.010138957003670672,0.008477473621006001,0.007484820492580847,0.007160997618395211,0.006657962217712593,-0.003201867619946121,-0.010554551944473068,-0.015400090755868248,-0.0209174171828144,-0.011695873412263476,-0.006423598008479037,-0.005100590971461079,-0.0027193806648742637,0.005052163394814375,0.011379371878425158,0.016262244785958082,0.021532126244700613,0.022552408974640722,0.024711368252119763,0.028009004077137738,0.0310015324408024,0.03676749290908385,0.04179031448467068,0.04606999716756288,0.05054880331661678,0.0589196259555629,0.0662475859191138,0.07253268320726944,0.0790972147071138,0.06535236899208982,0.05704940450056886,0.054188321232550914,0.049869090285389245,0.041753871373694615,0.03465578437157485,0.028574829279029962,0.022221334512718557,0.02520673065802396,0.025689778525359294,0.023670478114724544,0.022321679904353294,0.022769545990461094,0.022735997329257497,0.022221033920742515,0.02183506520499405,0.004439188132173642,-0.008398897733041935,-0.016679192390652676,-0.02618074352161081,-0.019737480153293414,-0.01756661695352095,-0.019668153922293423,-0.020624904716161692,-0.021131540379485038,-0.021758784028538928,-0.02250663566332336,-0.023222170485730546,-0.0237984074408024,-0.024411969146934137,-0.025062855604125755,-0.025703740924413188,-0.02514948417653294,-0.02491546478065869,-0.025001682736790425,-0.025002093353065875,-0.025075320438682644,-0.025129036410143718,-0.025163241267449107,-0.02520267411203594,-0.020728586100455082,-0.017463892357305392,-0.015408592882586858,-0.013029237190311368,-0.023199629366275457,-0.030007326735730543,-0.033452329298676635,-0.03779836321941914,-0.05749146945067672,-0.07307234005014974,-0.0845409750178382,-0.09711148020214982,-0.035098756492994064,0.006929451265251525,0.028973143072586964,0.05637166979009567,0.19695795566577856,0.3072156728819403,0.3871448214385808,0.47520048547513183,0.5428671723721679,0.6159970692282336,0.694590176043329,0.7717194201618207,0.5966251905676767,0.48911403706700585,0.4491859596598084,0.39114905159135366,0.20016727661927536,0.04480797137188612,-0.07492886415081412,-0.2042107116686469,-0.19023529151638924,-0.2146455405462215,-0.2774414587581437,-0.32995196791179665,-0.2875955628969342,-0.2706586709219581,-0.2791412919868683,-0.28081277506074853,-0.2722012865718384,-0.2663451120089701,-0.26324425137214374,-0.2594051065939402,-0.2252658209630599,-0.19924543360420358,-0.1813439445173713,-0.16126700319511975,-0.16411925532183835,-0.16082764858080842,-0.15139218297202994,-0.14360295938527548,-0.12544488714326346,-0.11006513952486827,-0.09746371653008984,-0.08411784369610183,-0.07621645133879641,-0.06685621483455689,-0.05603713418338324,-0.045608949643263466,-0.040533048156473045,-0.034023006747880245,-0.02607882541748506,-0.018518920720970056,-0.0229812349704012,-0.024222205362035936,-0.022241831895874253,-0.021124614914952083,-0.028554311760029948,-0.03369386994765271,-0.03654328947782036,-0.04000634981180841,-0.03646032157558683,-0.03479237296143114,-0.03500250396934133,-0.03470940505919761,-0.03472796478065869,-0.03466301582346708,-0.034514558187622765,-0.03438847663478444,-0.03644174171828145,-0.03791105263054492,-0.03879640937157486,-0.039838236161203605,-0.03948082435412576,-0.03949833739905391,-0.03989077529598803,-0.0401827523816048,-0.04054872277323954,-0.04089486671828145,-0.04122118421673054,-0.04155281419553296,-0.03482896636839521,-0.02999562812157485,-0.027052799455071858,-0.02360341027323953,-0.015870332924982022,-0.009285066361544903,-0.0038476105829281628,0.0018974001685449309,-0.008749639000491033,-0.015004441631035946,-0.016867007723089807,-0.01990647004859882,-0.014837039188682639,-0.011940379709311378,-0.011216491610485026,-0.009910411174904208,0.00161942575367067,0.010409815386335343,0.016460757723089806,0.023245732750491035,0.01903902762369461,0.017777534317676643,0.019461252832437135,0.020355804218281447,0.021743159028538926,0.02299846755919761,0.024121729810257488,0.025280373755299408,0.028924433981491034,0.03190252892229343,0.0342146585777066,0.036705233093526975,0.034033493649053906,0.03274499206131737,0.032839728330317376,0.032563827132664674,0.03276101293713173,0.03283143546143114,0.0327750947055629,0.0327527200682455,0.04859596811782636,0.060188035381035954,0.06752892185787424,0.07600890879329943,0.07216382231555689,0.07162122930552695,0.0743811297632096,0.0762561297632096,0.07852620178962876,0.08069041458561678,0.08274876815117367,0.08483548661203597,0.0832608223694551,0.08266722266544313,0.08305468750000003,0.08317927688372459,0.08318537177062875,0.08322321716226347,0.08329281305862876,0.08335390143289222,0.0910257509016647,0.09665830308137728,0.10025155797202995,0.10439124092441321,0.10263474081661678,0.10245811819822156,0.10386137306922756,0.10484130104280841,0.10708814087736529,0.10899551270189223,0.11056341651638923,0.11222228051002994,0.11207698303962874,0.11241510917653295,0.1132366589207425,0.11392867569977248,0.10926125312157486,0.10602988799102996,0.10423458030813776,0.10205448219186232,0.10091501389269464,0.0994967096744132,0.09779956953701797,0.09617714325897009,0.09003272742865272,0.08509997504704793,0.08137888611415572,0.07733313293868269,0.07362337227535931,0.06982358268974254,0.06593376418183235,0.06206806885094612,0.05487595678807784,0.04857515540223354,0.043165664693413194,0.03751734800847904,0.03888077415908384,0.03836540947937127,0.035971253969341324,0.03408051894504193,0.03346835951956886,0.03251360679492814,0.031216260771119768,0.030010712345155687,0.03417548065802396,0.03690127693762277,0.03818810118395209,0.039860496824526956,0.040879502038568875,0.042073582689742525,0.0434427387780479,0.04476498354435931,0.03556276571567066,0.029180569140083833,0.025618393817598832,0.021300596077706596,0.024520612802838335,0.025720878229371268,0.024901392357305388,0.024623097214610777,0.02697370292653294,0.028619896777479052,0.029561678767449105,0.0306922073467066,0.027925315621574853,0.02620273451956887,0.025524464040688637,0.02456637137369462,0.027241270983610788,0.02894271324682037,0.029670698163323357,0.030659520189742523,0.03088998893974252,0.03132365783773653,0.031960526883724555,0.03254294861415571,0.03115060600105989,0.0302873998990539,0.02995333030813773,0.02947747901638923
