,0,1,2,3,4,5,6,7,8,9,10,11,12,13,14,15,16,17,18,19,20,21,22,23,24,25,26,27,28,29,30,31,32,33,34,35,36,37,38,39,40,41,42,43,44,45,46,47,48,49,50,51,52,53,54,55,56,57,58,59,60,61,62,63,64,65,66,67,68,69,70,71,72,73,74,75,76,77,78,79,80,81,82,83,84,85,86,87,88,89,90,91,92,93,94,95,96,97,98,99,100,101,102,103,104,105,106,107,108,109,110,111,112,113,114,115,116,117,118,119,120,121,122,123,124,125,126,127,128,129,130,131,132,133,134,135,136,137,138,139,140,141,142,143,144,145,146,147,148,149,150,151,152,153,154,155,156,157,158,159,160,161,162,163,164,165,166,167,168,169,170,171,172,173,174,175,176,177,178,179,180,181,182,183,184,185,186,187,188,189,190,191,192,193,194,195,196,197,198,199,200,201,202,203,204,205,206,207,208,209,210,211,212,213,214,215,216,217,218,219,220,221,222,223,224,225,226,227,228,229,230,231,232,233,234,235,236,237,238,239,240,241,242,243,244,245,246,247,248,249,250,251,252,253,254,255,256,257,258,259,260,261,262,263,264,265,266,267,268,269,270,271,272,273,274,275,276,277,278,279,280,281,282,283,284,285,286,287,288,289,290,291,292,293,294,295,296,297,298,299,300,301,302
0,-0.085,-0.105,-0.107,-0.101,-0.095,-0.038,-0.044,-0.08,-0.11,-0.13,-0.079,-0.143,-0.137,-0.044,-0.08,-0.12,-0.062,-0.041,-0.053,-0.01,-0.061,-0.052,0.008,0.021,-0.01,0.002,0.028,0.002,-0.084,-0.135,-0.046,0.023,0.011,-0.073,-0.12,0.054,0.106,0.079,0.085,0.075,0.063,0.014,-0.018,-0.015,-0.02,-0.025,-0.024,-0.031,-0.049,-0.065,-0.08,-0.077,-0.142,-0.17,-0.06,-0.086,-0.079,-0.074,-0.121,-0.145,-0.134,-0.12,-0.094,-0.082,-0.105,-0.094,-0.083,-0.043,-0.01,-0.05,-0.086,-0.091,-0.093,-0.102,-0.105,-0.107,-0.134,-0.221,-0.247,-0.14,-0.12,-0.102,-0.069,0.029,0.23,0.393,0.582,0.798,0.986,1.14,1.308,1.393,1.462,1.546,1.57,1.529,1.395,1.214,1.064,0.935,0.729,0.573,0.467,0.338,0.2,0.155,0.193,0.139,0.029,0.02,0.008,0.027,-0.069,-0.163,-0.085,-0.138,-0.126,-0.066,-0.065,-0.105,-0.148,-0.163,-0.171,-0.182,-0.18,-0.177,-0.204,-0.226,-0.197,-0.145,-0.144,-0.137,-0.126,-0.107,-0.045,0.027,-0.04,-0.063,-0.037,-0.115,-0.119,-0.113,-0.115,-0.117,-0.13,-0.142,-0.158,-0.198,-0.181,-0.085,-0.129,-0.197,-0.207,-0.204,-0.19,-0.056,-0.059,-0.14,-0.186,-0.245,-0.309,-0.267,-0.258,-0.234,-0.085,-0.092,-0.121,-0.117,-0.107,-0.085,-0.045,-0.05,-0.076,-0.095,-0.125,-0.157,-0.149,-0.11,-0.117,-0.16,-0.094,-0.116,-0.132,-0.07,-0.035,-0.045,-0.061,-0.085,-0.134,-0.17,-0.122,-0.065,-0.028,-0.006,-0.01,-0.055,-0.082,-0.103,-0.121,-0.12,-0.128,-0.061,-0.032,-0.046,-0.01,-0.041,-0.055,-0.049,-0.05,-0.05,-0.051,-0.042,-0.028,-0.019,-0.03,-0.065,-0.091,-0.015,-0.009,-0.155,-0.019,0.054,0.059,0.073,0.045,0.047,0.057,0.064,0.081,0.115,0.15,0.117,0.06,0.038,0.045,0.064,0.083,0.032,0.05,0.2,0.114,0.089,0.067,0.048,0.17,0.213,0.115,0.054,0.071,0.05,0.03,0.037,-0.028,-0.07,0.02,-0.015,-0.082,-0.074,-0.027,-0.02,-0.014,0.005,0.004,-0.022,-0.04,-0.047,-0.062,-0.041,-0.006,-0.015,-0.017,-0.008,0.009,0.012,-0.015,-0.033,-0.067,-0.048,-0.026,-0.065,-0.005,0.019,0.032,-0.014,-0.145,-0.097,-0.074,-0.09,-0.091,-0.1,-0.105,-0.106,-0.117,-0.106,-0.055,-0.049,-0.047,-0.047,-0.076,-0.11,-0.073,HR12039,0
1,-0.15,-0.123,-0.105,-0.091,-0.098,-0.12,-0.061,-0.093,-0.132,-0.128,-0.12,-0.011,-0.017,-0.063,-0.068,-0.075,-0.041,-0.042,-0.063,-0.073,-0.085,-0.097,-0.112,-0.127,-0.137,-0.15,-0.168,-0.097,-0.04,-0.045,-0.035,-0.031,-0.025,-0.016,-0.008,-0.005,-0.012,0.009,0.021,0.014,0.015,0.015,0.015,0.015,0.015,0.015,-0.003,-0.067,-0.087,-0.053,-0.02,0.057,0.105,0.089,0.045,0.02,0.012,0.001,-0.012,-0.049,-0.11,-0.117,-0.113,-0.119,-0.125,-0.125,-0.13,-0.128,-0.154,-0.181,-0.16,-0.143,-0.128,-0.114,-0.102,-0.125,-0.234,-0.232,-0.164,-0.13,-0.115,-0.091,-0.105,-0.129,-0.128,-0.095,-0.029,-0.066,-0.112,-0.095,-0.1,-0.168,-0.209,-0.17,-0.11,-0.07,0.046,0.175,0.297,0.465,0.675,0.843,1.093,1.277,1.368,1.505,1.59,1.607,1.573,1.506,1.4,1.218,1.034,0.852,0.674,0.53,0.407,0.305,0.218,0.17,0.16,0.113,0.105,0.09,0.063,0.05,-0.043,-0.098,-0.129,-0.158,-0.13,-0.069,-0.131,-0.157,-0.146,-0.22,-0.177,-0.17,-0.193,-0.196,-0.21,-0.224,-0.188,-0.173,-0.21,-0.23,-0.202,-0.183,-0.144,-0.118,-0.165,-0.198,-0.227,-0.214,-0.155,-0.12,-0.139,-0.181,-0.166,-0.162,-0.22,-0.141,-0.103,-0.115,-0.123,-0.135,-0.143,-0.154,-0.164,-0.174,-0.185,-0.17,-0.155,-0.143,-0.126,-0.115,-0.123,-0.152,-0.105,-0.042,-0.08,-0.093,-0.114,-0.158,-0.153,-0.12,-0.213,-0.11,-0.008,-0.033,-0.025,-0.049,-0.093,-0.117,-0.103,-0.08,-0.095,-0.073,-0.097,-0.186,-0.22,-0.16,-0.093,-0.053,-0.039,-0.045,-0.049,-0.055,-0.05,-0.064,-0.08,0.015,-0.025,-0.098,-0.092,-0.07,-0.035,-0.068,-0.074,-0.008,0.035,0.024,0.015,0.012,0.002,0.0,0.02,0.002,0.006,0.041,0.045,0.045,0.045,0.045,0.045,0.045,0.049,0.05,0.05,0.05,0.05,0.048,0.062,0.074,0.103,0.145,0.101,0.084,0.106,0.087,0.04,0.087,0.076,0.048,0.039,-0.005,-0.023,0.041,0.083,0.067,0.065,0.066,0.061,0.063,0.045,0.055,0.215,0.144,0.038,0.051,0.035,0.029,0.035,0.013,-0.001,0.05,0.09,0.101,0.098,0.103,0.1,0.048,0.015,0.022,0.046,0.06,0.053,0.044,0.034,0.023,0.02,0.012,0.006,-0.013,-0.04,-0.03,0.021,0.026,-0.038,-0.081,-0.04,HR12039,0
2,-0.04,-0.052,-0.056,-0.087,-0.077,0.02,-0.009,-0.058,-0.062,-0.065,-0.09,-0.08,-0.066,-0.066,-0.071,-0.065,-0.033,-0.008,-0.009,-0.023,-0.03,-0.042,-0.055,-0.062,-0.067,-0.075,-0.083,-0.092,-0.096,-0.103,-0.105,-0.079,-0.104,-0.02,0.092,0.01,-0.062,-0.078,-0.088,-0.073,-0.015,-0.027,-0.051,-0.036,0.013,0.035,-0.024,-0.069,-0.075,-0.068,-0.065,-0.086,-0.121,-0.112,-0.099,-0.12,-0.066,-0.059,-0.087,-0.087,-0.07,-0.069,-0.071,-0.069,-0.063,-0.065,-0.102,-0.155,-0.168,-0.118,-0.05,-0.037,-0.048,-0.03,-0.02,-0.075,-0.13,-0.161,-0.16,-0.149,-0.135,-0.078,-0.043,0.009,0.115,0.235,0.331,0.477,0.653,0.858,1.09,1.227,1.344,1.461,1.538,1.535,1.433,1.269,1.141,1.049,0.9,0.689,0.562,0.452,0.313,0.21,0.134,0.089,0.063,0.048,0.04,0.006,-0.036,-0.056,-0.045,-0.05,-0.149,-0.221,-0.209,-0.15,-0.11,-0.109,-0.11,-0.111,-0.107,-0.11,-0.162,-0.163,-0.145,-0.144,-0.135,-0.131,-0.125,-0.115,-0.118,-0.11,-0.037,-0.069,-0.134,-0.154,-0.155,-0.11,-0.124,-0.172,-0.192,-0.19,-0.194,-0.198,-0.201,-0.198,-0.175,-0.123,-0.117,-0.129,-0.141,-0.175,-0.202,-0.238,-0.233,-0.156,-0.07,-0.095,-0.258,-0.35,-0.261,-0.12,-0.085,-0.178,-0.16,-0.057,-0.075,-0.08,-0.085,-0.092,-0.097,-0.105,-0.11,-0.107,-0.103,-0.09,-0.085,-0.132,-0.135,-0.108,-0.118,-0.155,-0.146,-0.121,-0.099,-0.081,-0.06,-0.022,-0.017,-0.095,-0.166,-0.135,-0.114,-0.094,-0.099,-0.125,-0.115,-0.062,-0.071,-0.115,-0.122,-0.105,-0.135,-0.163,-0.159,-0.142,-0.13,-0.112,-0.109,-0.075,-0.037,-0.04,0.0,0.021,0.02,0.028,0.03,-0.011,-0.033,-0.068,-0.058,0.045,0.057,0.06,0.046,0.025,0.045,0.05,0.053,0.057,0.062,0.065,0.056,0.061,0.065,0.068,0.065,-0.002,-0.011,0.066,0.142,0.17,0.213,0.182,0.096,0.054,0.1,0.183,0.287,0.211,0.062,0.075,0.04,0.025,0.033,0.027,0.015,0.011,0.005,-0.005,-0.01,-0.005,-0.003,0.017,0.041,0.06,0.08,0.093,0.129,0.083,0.01,0.05,0.077,0.112,0.043,-0.061,-0.04,-0.037,-0.011,0.01,0.013,0.025,-0.002,-0.027,-0.028,-0.018,-0.005,0.019,0.005,0.027,0.041,-0.04,-0.071,-0.062,-0.05,-0.043,-0.035,HR12039,0
3,0.03,0.005,-0.012,-0.031,-0.076,-0.079,-0.01,-0.026,-0.116,-0.124,-0.067,-0.07,-0.063,-0.053,-0.048,-0.035,-0.03,-0.086,-0.085,-0.048,-0.025,0.0,0.032,0.018,-0.031,-0.074,-0.095,-0.109,-0.135,-0.098,-0.047,-0.065,-0.033,-0.032,-0.133,-0.161,-0.015,-0.008,-0.015,-0.047,-0.095,-0.08,-0.075,-0.073,-0.066,-0.067,-0.055,0.029,0.081,0.02,-0.033,0.025,0.027,0.029,0.005,0.01,0.095,0.073,0.035,0.03,0.018,0.005,0.069,0.069,0.011,0.021,0.135,0.198,0.11,0.033,0.027,0.015,0.032,-0.041,-0.101,-0.12,-0.14,-0.026,-0.007,-0.01,-0.012,-0.09,-0.081,-0.047,-0.074,-0.12,-0.11,-0.104,-0.109,-0.06,-0.007,-0.04,-0.068,-0.069,-0.063,-0.059,-0.055,-0.051,-0.018,-0.056,-0.137,-0.145,-0.161,-0.2,-0.171,-0.087,-0.02,0.099,0.218,0.369,0.52,0.64,0.863,1.027,1.197,1.346,1.37,1.462,1.596,1.664,1.592,1.395,1.165,0.959,0.807,0.7,0.595,0.476,0.356,0.266,0.223,0.185,0.095,0.071,0.035,-0.03,-0.03,-0.002,0.018,-0.016,-0.06,-0.05,-0.046,-0.038,-0.07,-0.116,-0.11,-0.109,-0.113,-0.116,-0.115,-0.115,-0.119,-0.12,-0.12,-0.119,-0.115,-0.119,-0.12,-0.121,-0.126,-0.13,-0.135,-0.132,-0.131,-0.136,-0.14,-0.144,-0.149,-0.148,-0.146,-0.165,-0.192,-0.121,-0.068,-0.083,-0.08,-0.079,-0.083,-0.087,-0.082,-0.065,-0.053,-0.038,-0.024,-0.011,0.015,0.049,-0.012,-0.079,-0.102,-0.135,-0.153,-0.183,-0.131,-0.053,-0.08,-0.082,-0.078,-0.084,-0.09,-0.09,-0.093,-0.069,-0.048,-0.025,0.005,-0.051,-0.117,-0.157,-0.153,-0.105,-0.064,-0.027,0.006,0.057,0.085,-0.02,-0.029,0.047,0.037,-0.065,-0.058,-0.044,-0.043,-0.041,-0.025,0.059,0.049,0.006,0.023,0.055,0.045,0.031,0.032,0.043,0.045,0.021,0.007,0.003,-0.009,-0.015,0.033,0.095,0.122,0.12,0.12,0.103,0.07,0.093,0.113,0.045,0.025,0.025,0.075,0.139,0.145,0.163,0.189,0.174,0.132,0.105,0.066,0.056,0.046,0.055,0.11,0.113,0.109,0.108,0.106,0.105,0.075,0.073,0.081,0.081,0.09,0.089,0.097,0.099,0.103,0.14,0.182,0.097,0.047,0.105,0.135,0.124,0.115,0.083,0.055,0.09,0.126,0.125,0.105,0.094,0.08,0.018,-0.011,-0.008,-0.004,HR12039,0
4,-0.07,-0.07,-0.066,-0.065,-0.063,-0.06,-0.055,-0.03,-0.054,-0.069,-0.045,-0.03,-0.014,0.001,0.005,0.006,-0.01,-0.089,-0.148,-0.101,-0.025,-0.025,-0.01,0.007,0.009,-0.004,-0.02,-0.021,-0.018,-0.008,0.009,0.02,0.024,0.029,-0.004,-0.044,-0.03,-0.011,0.02,0.074,0.088,0.025,-0.012,-0.014,-0.007,-0.005,-0.005,-0.003,0.014,0.017,0.001,-0.01,-0.025,-0.045,-0.015,0.03,0.035,0.081,0.059,0.043,0.069,0.085,0.117,0.033,-0.073,-0.102,-0.095,-0.095,-0.089,-0.085,-0.083,-0.065,-0.047,-0.044,-0.046,-0.044,-0.045,-0.05,-0.011,0.002,0.001,-0.01,-0.176,-0.131,-0.06,-0.093,-0.065,-0.041,-0.077,-0.065,-0.085,-0.22,-0.194,-0.167,-0.104,-0.038,-0.085,-0.079,0.035,0.177,0.294,0.41,0.553,0.805,1.032,1.165,1.29,1.427,1.516,1.588,1.633,1.585,1.467,1.314,1.173,1.021,0.83,0.672,0.521,0.405,0.315,0.23,0.21,0.135,0.081,0.075,0.045,0.044,0.001,-0.065,-0.082,-0.065,-0.12,-0.158,-0.156,-0.15,-0.15,-0.141,-0.143,-0.126,-0.076,-0.08,-0.228,-0.254,-0.189,-0.164,-0.165,-0.132,-0.123,-0.137,-0.119,-0.07,-0.075,-0.091,-0.099,-0.107,-0.115,-0.126,-0.141,-0.127,-0.084,-0.06,-0.075,-0.09,-0.101,-0.112,-0.12,-0.144,-0.189,-0.143,-0.06,-0.075,-0.076,-0.078,-0.079,-0.074,-0.08,-0.089,-0.028,-0.081,-0.181,-0.125,-0.117,-0.12,-0.11,-0.104,-0.1,-0.096,-0.092,-0.089,-0.082,-0.08,-0.128,-0.221,-0.198,-0.073,-0.025,-0.028,0.066,0.042,-0.09,-0.085,-0.085,-0.205,-0.172,-0.036,-0.095,-0.152,-0.067,-0.001,-0.017,-0.01,-0.006,-0.002,0.0,0.001,0.005,0.004,0.011,-0.001,-0.041,-0.07,-0.058,-0.062,-0.09,-0.087,-0.015,0.055,0.043,0.051,0.097,0.11,0.131,0.061,-0.022,-0.005,0.07,0.065,0.031,0.063,0.098,0.055,0.054,0.046,0.024,0.015,0.055,0.152,0.147,0.092,0.082,0.1,0.108,0.119,0.129,0.138,0.165,0.199,0.138,0.075,0.078,0.09,0.103,0.103,0.098,0.093,0.08,0.072,0.056,0.02,0.029,0.105,0.099,0.07,0.067,0.076,0.075,0.079,0.083,0.089,0.105,0.115,0.077,0.039,0.029,0.038,0.045,0.045,0.048,0.049,0.052,0.065,0.073,0.082,0.084,0.097,0.12,0.072,0.012,-0.011,0.016,HR12039,0
5,-0.04,-0.04,0.003,-0.026,-0.053,-0.012,0.035,0.045,0.046,0.055,0.05,0.02,0.001,0.002,0.006,0.005,0.005,0.006,0.003,0.014,0.025,0.015,0.01,-0.025,-0.071,-0.101,-0.115,-0.124,-0.128,-0.161,-0.12,0.025,0.005,-0.031,-0.041,-0.06,-0.07,-0.045,0.033,0.089,0.077,0.02,-0.046,-0.018,0.004,-0.035,-0.06,-0.069,-0.07,-0.07,-0.079,-0.08,-0.029,-0.021,-0.034,-0.036,-0.045,-0.05,-0.047,-0.046,-0.052,-0.06,-0.068,-0.076,-0.084,-0.091,-0.095,-0.103,-0.108,-0.113,-0.114,-0.12,-0.166,-0.141,-0.09,-0.089,-0.11,-0.117,-0.176,-0.224,-0.171,-0.01,0.214,0.391,0.559,0.728,0.885,1.1,1.201,1.347,1.52,1.545,1.61,1.602,1.521,1.379,1.165,0.982,0.819,0.696,0.608,0.49,0.326,0.254,0.26,0.21,0.09,0.072,0.07,0.049,0.005,-0.03,0.014,-0.075,-0.152,-0.131,-0.135,-0.14,-0.139,-0.129,-0.118,-0.115,-0.112,-0.101,-0.09,-0.075,-0.04,-0.006,-0.064,-0.109,-0.091,-0.09,-0.088,-0.076,-0.116,-0.172,-0.16,-0.15,-0.151,-0.146,-0.14,-0.145,-0.149,-0.153,-0.155,-0.164,-0.165,-0.106,-0.091,-0.105,-0.104,-0.115,-0.162,-0.168,-0.171,-0.14,-0.045,-0.055,-0.081,-0.089,-0.097,-0.105,-0.113,-0.119,-0.133,-0.11,-0.04,-0.048,-0.065,-0.078,-0.092,-0.095,-0.095,-0.092,-0.09,-0.089,-0.085,-0.085,-0.085,-0.102,-0.123,-0.09,0.009,-0.016,-0.108,-0.193,-0.245,-0.149,-0.066,-0.043,-0.049,-0.075,-0.102,-0.064,0.014,0.052,0.03,0.013,-0.032,-0.049,-0.016,0.0,-0.037,-0.046,-0.036,-0.025,0.0,0.023,0.053,0.021,-0.047,-0.055,-0.029,0.005,0.018,0.023,0.035,0.015,-0.026,0.007,0.074,0.075,0.078,0.047,0.027,0.009,-0.015,0.087,0.131,0.123,0.143,0.145,0.063,0.097,0.144,0.101,0.06,0.069,0.088,0.103,0.118,0.13,0.143,0.148,0.153,0.163,0.17,0.151,0.06,0.013,0.033,0.04,0.08,0.137,0.124,0.064,0.05,0.053,0.061,0.053,0.029,0.015,0.027,0.027,-0.001,0.015,0.11,0.151,0.095,0.06,0.095,0.105,0.032,-0.006,-0.018,-0.03,-0.025,-0.026,0.024,0.057,0.049,0.05,0.038,0.028,0.004,-0.05,-0.06,0.06,0.036,0.005,0.043,0.01,-0.022,-0.021,-0.011,-0.002,0.01,0.013,0.029,0.016,-0.04,HR12039,0
6,-0.02,-0.055,0.0,0.096,0.089,-0.02,-0.083,-0.093,-0.04,0.036,0.06,0.033,0.012,0.01,-0.009,-0.05,-0.042,-0.016,-0.011,-0.023,-0.03,-0.033,-0.044,-0.053,-0.057,-0.065,-0.079,-0.13,-0.038,0.097,0.055,0.061,0.054,-0.001,-0.029,0.005,0.006,-0.017,0.023,0.089,0.06,-0.021,-0.044,-0.042,-0.051,-0.05,-0.057,-0.067,-0.056,-0.091,-0.19,-0.168,-0.128,-0.099,-0.068,-0.05,-0.042,-0.034,-0.028,-0.042,-0.085,-0.128,-0.108,-0.084,-0.084,-0.075,-0.066,-0.061,-0.046,-0.026,-0.035,-0.092,-0.127,-0.146,-0.162,-0.155,-0.129,-0.048,0.072,0.204,0.345,0.493,0.681,0.887,1.074,1.22,1.302,1.384,1.456,1.49,1.475,1.384,1.225,1.032,0.865,0.74,0.583,0.448,0.347,0.24,0.135,0.117,0.156,0.117,0.032,0.02,0.004,-0.005,-0.023,-0.067,-0.105,-0.107,-0.105,-0.121,-0.164,-0.185,-0.097,-0.082,-0.108,-0.121,-0.16,-0.183,-0.151,-0.122,-0.127,-0.125,-0.089,-0.031,-0.055,-0.162,-0.23,-0.225,-0.238,-0.155,-0.035,-0.045,-0.039,-0.03,-0.03,-0.03,-0.025,-0.029,-0.097,-0.138,-0.122,-0.12,-0.124,-0.128,-0.131,-0.12,-0.12,-0.178,-0.131,-0.09,-0.122,-0.145,-0.172,-0.102,-0.063,-0.096,-0.1,-0.105,-0.139,-0.208,-0.226,-0.13,-0.047,-0.063,-0.19,-0.287,-0.24,-0.208,-0.202,-0.197,-0.188,-0.185,-0.189,-0.152,-0.088,-0.051,-0.05,-0.043,-0.066,-0.102,-0.123,-0.105,-0.039,-0.045,-0.104,-0.113,-0.075,-0.11,-0.091,-0.019,-0.01,-0.03,0.121,0.112,0.015,-0.039,-0.08,-0.038,0.028,0.026,-0.008,0.005,0.006,0.035,0.037,0.013,0.025,0.035,0.031,0.019,0.016,0.025,0.033,0.074,0.103,0.107,0.12,0.127,0.14,0.126,0.077,0.045,0.073,0.085,0.092,0.106,0.095,0.074,0.064,0.084,0.098,0.065,0.035,0.054,0.078,0.08,0.09,0.114,0.096,0.072,0.07,0.065,0.057,0.052,0.047,0.036,0.03,0.053,0.077,0.11,0.165,0.2,0.145,0.035,-0.017,-0.009,-0.02,-0.025,-0.025,-0.056,-0.005,0.17,0.162,0.072,0.046,0.094,0.11,0.021,-0.059,-0.06,-0.013,0.02,0.019,0.0,-0.017,-0.028,-0.035,-0.033,-0.049,-0.017,0.009,-0.065,-0.089,-0.028,0.003,-0.028,-0.045,-0.024,0.011,-0.016,-0.055,-0.035,-0.063,0.03,0.061,-0.028,-0.06,HR12039,0
7,-0.119,-0.12,-0.127,-0.069,-0.022,-0.026,-0.025,-0.02,-0.022,-0.014,-0.022,-0.05,-0.02,-0.03,-0.064,-0.078,-0.065,-0.004,-0.002,-0.036,-0.08,-0.125,-0.096,-0.128,-0.114,-0.018,0.025,-0.02,-0.096,-0.075,-0.007,-0.025,-0.041,-0.025,0.006,0.029,0.035,0.043,0.047,0.056,0.067,0.07,0.077,0.092,0.074,0.022,0.0,0.039,0.03,-0.003,-0.019,-0.035,-0.051,-0.064,-0.077,-0.095,-0.12,-0.146,-0.081,-0.008,-0.013,-0.075,-0.142,-0.11,-0.068,-0.07,-0.06,-0.052,-0.04,-0.034,-0.052,-0.08,-0.081,-0.083,-0.082,-0.074,-0.095,-0.143,-0.076,-0.033,-0.082,-0.105,-0.1,-0.08,-0.127,-0.182,-0.145,-0.148,-0.208,-0.18,-0.081,-0.04,0.018,0.163,0.359,0.544,0.705,0.872,1.111,1.303,1.386,1.445,1.515,1.558,1.531,1.438,1.315,1.17,0.999,0.809,0.646,0.54,0.417,0.227,0.137,0.148,0.105,0.071,0.052,0.07,0.062,-0.03,-0.08,-0.098,-0.145,-0.189,-0.18,-0.183,-0.152,-0.133,-0.148,-0.155,-0.166,-0.179,-0.158,-0.089,-0.025,-0.058,-0.118,-0.107,-0.083,-0.13,-0.154,-0.184,-0.176,-0.112,-0.075,-0.128,-0.142,-0.136,-0.147,-0.155,-0.183,-0.17,-0.132,-0.104,-0.07,-0.019,-0.105,-0.157,-0.094,-0.06,-0.074,-0.094,-0.12,-0.143,-0.14,-0.139,-0.146,-0.152,-0.166,-0.165,-0.083,-0.12,-0.187,-0.171,-0.125,-0.105,-0.116,-0.145,-0.142,-0.09,-0.079,-0.083,-0.088,-0.098,-0.105,-0.099,-0.082,-0.119,-0.152,-0.1,-0.086,-0.107,-0.114,-0.102,-0.095,-0.087,-0.079,-0.072,-0.062,-0.055,-0.071,-0.083,-0.119,-0.142,-0.085,-0.027,-0.055,-0.09,-0.064,-0.025,-0.035,-0.051,-0.06,-0.075,-0.085,-0.065,-0.049,-0.024,-0.004,-0.015,-0.004,0.007,0.014,0.02,0.02,0.027,0.037,0.042,0.047,0.055,0.064,0.098,0.088,0.034,0.015,0.02,0.013,0.047,0.095,0.09,0.11,0.088,0.079,0.086,0.07,0.118,0.107,0.091,0.115,0.125,0.134,0.164,0.11,0.043,0.085,0.063,0.049,0.048,0.055,0.07,0.041,0.037,0.068,0.121,0.165,0.132,0.096,0.093,0.119,0.125,0.043,0.004,0.004,0.0,0.0,-0.004,-0.005,-0.007,-0.01,-0.01,-0.014,-0.015,-0.018,-0.019,-0.02,-0.045,0.009,-0.005,-0.041,0.055,0.054,-0.01,-0.059,-0.08,-0.105,-0.133,-0.125,-0.11,-0.093,HR12039,0
8,-0.068,-0.042,-0.01,-0.04,-0.039,-0.063,-0.105,-0.129,-0.135,-0.139,-0.108,-0.067,-0.056,-0.08,-0.107,-0.113,-0.137,-0.106,0.015,0.006,-0.023,-0.023,-0.029,-0.025,0.05,0.037,-0.016,-0.043,-0.065,-0.049,-0.049,-0.072,-0.049,0.03,0.032,0.011,0.033,0.089,0.115,0.074,0.031,0.03,0.057,0.07,0.042,-0.044,-0.089,-0.089,-0.085,-0.004,-0.099,-0.159,-0.103,-0.13,-0.151,-0.099,-0.077,-0.121,-0.15,-0.145,-0.122,-0.086,-0.073,-0.1,-0.104,-0.116,-0.144,-0.135,-0.085,-0.108,-0.152,-0.153,-0.124,-0.11,-0.108,-0.124,-0.159,-0.19,-0.17,-0.091,-0.087,-0.048,0.076,0.215,0.429,0.703,0.914,1.012,1.105,1.306,1.424,1.513,1.587,1.56,1.523,1.413,1.239,1.056,0.895,0.743,0.559,0.445,0.366,0.24,0.21,0.127,0.029,-0.003,0.025,0.083,-0.026,-0.099,-0.051,-0.075,-0.167,-0.169,-0.129,-0.11,-0.105,-0.131,-0.097,-0.108,-0.177,-0.195,-0.227,-0.28,-0.274,-0.209,-0.17,-0.179,-0.17,-0.156,-0.154,-0.15,-0.146,-0.142,-0.138,-0.133,-0.13,-0.142,-0.152,-0.158,-0.168,-0.175,-0.17,-0.174,-0.139,-0.123,-0.19,-0.201,-0.21,-0.258,-0.237,-0.11,-0.107,-0.121,-0.105,-0.095,-0.105,-0.113,-0.12,-0.131,-0.132,-0.12,-0.123,-0.066,-0.091,-0.176,-0.17,-0.176,-0.152,-0.112,-0.092,-0.095,-0.115,-0.134,-0.158,-0.196,-0.23,-0.224,-0.209,-0.203,-0.198,-0.185,-0.175,-0.176,-0.151,-0.097,-0.055,-0.037,-0.07,-0.146,-0.212,-0.175,-0.012,-0.057,-0.126,-0.097,-0.1,-0.058,-0.053,-0.075,-0.116,-0.15,-0.051,-0.019,-0.016,-0.021,-0.085,-0.085,-0.073,-0.063,-0.046,-0.005,0.092,0.053,-0.019,-0.016,-0.005,-0.023,-0.01,0.031,0.042,0.02,0.053,0.095,0.104,0.102,0.1,0.041,-0.003,0.006,0.035,0.05,0.077,0.108,0.126,0.14,0.145,0.089,0.022,0.004,-0.019,-0.065,0.021,0.044,0.011,0.024,0.06,0.034,0.051,0.09,0.066,0.01,0.045,0.054,0.028,0.039,0.075,0.043,-0.003,-0.017,-0.008,-0.005,-0.005,-0.006,-0.001,-0.004,-0.01,0.036,0.046,0.023,-0.002,-0.06,-0.163,-0.081,0.036,-0.023,-0.17,-0.159,-0.121,-0.096,-0.07,-0.02,0.098,0.064,0.009,0.027,0.005,-0.041,-0.025,0.035,0.04,-0.04,-0.086,-0.089,-0.083,-0.069,-0.04,-0.056,-0.16,HR12039,0
9,0.02,-0.06,-0.091,-0.091,-0.096,-0.1,-0.106,-0.123,-0.082,-0.024,-0.04,-0.048,-0.063,-0.07,-0.074,-0.095,-0.097,-0.091,-0.09,-0.089,-0.085,-0.08,-0.08,-0.064,-0.086,-0.135,-0.023,0.0,-0.04,-0.062,-0.07,-0.002,-0.035,-0.127,-0.16,-0.145,-0.152,-0.091,-0.105,-0.149,-0.06,-0.028,-0.004,0.018,0.019,0.02,0.058,0.129,0.097,-0.001,-0.005,0.035,0.094,0.072,-0.004,-0.045,-0.113,-0.099,-0.065,-0.065,-0.06,-0.057,-0.044,-0.011,-0.018,-0.1,-0.142,-0.176,-0.13,-0.058,-0.09,-0.135,-0.138,-0.123,-0.112,-0.1,-0.097,-0.119,-0.131,-0.088,-0.025,-0.053,-0.091,-0.138,-0.17,-0.145,-0.149,-0.173,-0.13,-0.087,-0.135,-0.122,-0.066,0.013,0.092,0.185,0.357,0.443,0.618,0.923,1.165,1.332,1.413,1.457,1.482,1.475,1.458,1.369,1.178,0.953,0.795,0.699,0.556,0.452,0.352,0.165,0.085,0.106,0.069,-0.013,-0.03,-0.062,-0.051,-0.028,-0.06,-0.12,-0.109,-0.146,-0.156,-0.102,-0.065,-0.058,-0.108,-0.163,-0.182,-0.185,-0.194,-0.194,-0.186,-0.178,-0.17,-0.164,-0.143,-0.136,-0.148,-0.155,-0.159,-0.161,-0.174,-0.202,-0.215,-0.172,-0.104,-0.105,-0.171,-0.215,-0.23,-0.259,-0.235,-0.176,-0.17,-0.167,-0.161,-0.16,-0.158,-0.15,-0.149,-0.15,-0.134,-0.119,-0.13,-0.135,-0.133,-0.112,-0.13,-0.21,-0.214,-0.242,-0.229,-0.151,-0.095,-0.063,-0.061,-0.067,-0.082,-0.135,-0.192,-0.171,-0.159,-0.129,-0.03,-0.067,-0.086,-0.08,-0.084,-0.07,-0.055,-0.066,-0.063,-0.078,-0.145,-0.134,-0.105,-0.07,-0.061,-0.1,-0.082,-0.067,-0.077,-0.077,-0.06,-0.081,-0.116,-0.156,-0.193,-0.205,-0.182,-0.16,-0.135,-0.103,-0.085,-0.074,-0.055,-0.052,-0.043,0.0,0.016,0.037,0.027,0.004,0.025,0.034,0.041,0.064,0.062,0.01,0.005,-0.005,-0.021,-0.026,-0.035,-0.049,0.028,0.097,0.072,0.01,-0.005,0.029,0.081,0.106,0.085,0.063,0.113,0.033,-0.069,0.045,0.079,0.055,0.012,-0.009,0.02,0.047,0.048,0.044,0.044,0.035,0.023,0.045,0.036,0.0,0.01,0.027,-0.031,-0.044,0.028,0.065,0.035,-0.03,-0.048,-0.037,-0.065,-0.091,-0.157,-0.078,0.069,0.05,0.042,0.052,0.006,-0.016,0.025,-0.076,0.028,0.145,0.126,0.1,-0.011,-0.07,-0.11,-0.14,-0.105,HR12039,0
10,-0.07,-0.122,-0.085,-0.083,-0.083,-0.081,-0.085,-0.085,-0.103,-0.128,-0.119,-0.072,-0.06,-0.136,-0.115,-0.063,-0.061,-0.065,-0.073,-0.078,-0.082,-0.086,-0.095,-0.106,-0.056,-0.042,-0.037,0.02,-0.055,-0.089,-0.073,-0.053,-0.025,-0.036,-0.047,-0.072,-0.143,-0.21,-0.155,-0.059,0.009,0.03,0.015,0.011,0.005,0.011,0.03,0.04,0.032,0.027,0.036,0.02,-0.02,0.02,0.03,-0.034,-0.074,-0.035,-0.045,-0.058,-0.081,-0.135,-0.175,-0.136,-0.081,-0.076,-0.126,-0.18,-0.182,-0.18,-0.176,-0.161,-0.155,-0.174,-0.127,-0.098,-0.136,-0.155,-0.11,-0.124,-0.122,-0.095,-0.115,-0.093,-0.106,-0.141,-0.158,-0.17,-0.192,-0.161,-0.149,-0.147,-0.055,0.085,0.182,0.316,0.523,0.725,0.905,1.087,1.253,1.367,1.445,1.537,1.54,1.475,1.356,1.175,1.037,0.9,0.718,0.544,0.44,0.322,0.141,0.156,0.263,0.155,0.073,0.058,0.027,-0.051,-0.12,-0.13,-0.134,-0.13,-0.147,-0.175,-0.093,-0.17,-0.223,-0.14,-0.105,-0.152,-0.218,-0.231,-0.195,-0.175,-0.197,-0.227,-0.234,-0.222,-0.21,-0.188,-0.154,-0.151,-0.201,-0.235,-0.17,-0.148,-0.156,-0.158,-0.17,-0.156,-0.164,-0.117,-0.056,-0.095,-0.129,-0.159,-0.219,-0.228,-0.16,-0.199,-0.176,-0.18,-0.229,-0.2,-0.182,-0.207,-0.201,-0.102,-0.005,-0.084,-0.153,-0.206,-0.229,-0.15,-0.078,-0.076,-0.1,-0.114,-0.13,-0.144,-0.168,-0.122,-0.07,-0.115,-0.117,-0.116,-0.106,-0.123,-0.19,-0.176,-0.133,-0.101,-0.089,-0.09,-0.082,-0.114,-0.13,-0.12,-0.12,-0.087,-0.108,-0.125,-0.079,-0.025,-0.034,-0.054,-0.065,-0.081,-0.085,-0.027,-0.01,-0.028,-0.036,-0.035,-0.035,-0.03,-0.019,-0.034,-0.06,0.005,0.057,0.007,0.008,0.115,-0.009,-0.086,-0.052,-0.014,-0.01,-0.002,0.004,0.006,0.039,0.1,0.099,0.09,0.089,0.092,0.09,0.043,0.043,0.074,0.085,0.07,0.05,0.099,0.128,0.105,0.09,0.073,0.067,0.076,0.05,0.01,0.087,0.015,-0.031,0.04,0.06,0.053,0.041,0.027,-0.006,-0.025,0.049,0.073,0.063,0.064,0.05,0.034,0.014,-0.034,-0.065,-0.02,0.041,0.052,0.024,0.002,0.005,0.01,0.01,0.01,0.018,0.035,0.048,0.05,0.021,-0.007,0.015,0.041,-0.019,-0.05,-0.021,-0.005,0.033,-0.093,-0.116,HR12039,0
11,-0.101,-0.075,-0.054,-0.079,-0.133,-0.198,-0.245,-0.195,-0.125,-0.114,-0.148,-0.165,-0.147,-0.123,-0.126,-0.134,-0.115,-0.102,-0.095,-0.083,-0.075,-0.075,-0.069,-0.118,-0.135,-0.106,-0.095,-0.044,-0.041,-0.079,-0.067,-0.02,-0.09,-0.108,-0.136,-0.147,-0.065,-0.097,-0.049,0.03,-0.001,-0.1,-0.112,-0.115,-0.102,-0.059,-0.02,0.009,-0.006,-0.043,-0.071,-0.075,-0.035,0.024,0.038,0.016,0.005,-0.017,-0.018,-0.034,-0.074,-0.1,-0.126,-0.133,-0.141,-0.133,-0.105,-0.152,-0.217,-0.222,-0.154,-0.125,-0.264,-0.249,-0.146,-0.112,-0.115,-0.105,-0.084,-0.103,-0.167,-0.215,-0.209,-0.2,-0.199,-0.193,-0.185,-0.181,-0.175,-0.181,-0.189,-0.175,-0.166,-0.162,-0.173,-0.186,-0.195,-0.222,-0.114,-0.057,-0.001,0.245,0.394,0.541,0.723,0.94,1.15,1.235,1.383,1.5,1.545,1.59,1.504,1.359,1.167,1.028,0.97,0.741,0.613,0.508,0.369,0.295,0.194,0.149,0.103,0.002,-0.085,-0.087,-0.062,-0.087,-0.121,-0.095,-0.087,-0.107,-0.132,-0.165,-0.19,-0.158,-0.216,-0.263,-0.223,-0.19,-0.191,-0.174,-0.167,-0.184,-0.195,-0.215,-0.263,-0.231,-0.173,-0.225,-0.259,-0.253,-0.24,-0.234,-0.225,-0.212,-0.207,-0.2,-0.196,-0.2,-0.186,-0.19,-0.162,-0.139,-0.19,-0.195,-0.178,-0.227,-0.283,-0.245,-0.219,-0.201,-0.165,-0.183,-0.28,-0.285,-0.278,-0.277,-0.277,-0.275,-0.232,-0.295,-0.273,-0.14,-0.105,-0.112,-0.121,-0.131,-0.134,-0.15,-0.225,-0.185,-0.145,-0.123,-0.035,-0.068,-0.121,-0.143,-0.143,-0.135,-0.147,-0.176,-0.101,0.01,-0.01,-0.077,-0.18,-0.216,-0.177,-0.155,-0.127,-0.105,-0.081,-0.065,-0.09,-0.12,-0.063,-0.058,-0.101,-0.045,0.009,0.016,0.019,-0.004,-0.07,-0.063,-0.073,-0.086,-0.07,-0.065,-0.076,0.011,0.06,0.023,0.015,0.011,0.009,0.011,0.009,0.005,0.006,0.002,0.017,0.036,0.02,0.011,0.007,-0.012,0.011,0.095,0.095,0.088,0.089,0.085,0.085,0.083,0.092,0.044,-0.006,0.03,0.049,0.186,0.191,0.051,0.02,-0.003,0.046,0.096,0.101,0.1,0.078,0.077,0.061,0.03,0.02,-0.001,-0.009,-0.014,-0.021,-0.025,-0.038,-0.004,0.051,0.087,0.09,0.035,-0.015,-0.086,-0.065,0.105,0.098,0.002,-0.035,-0.017,-0.015,-0.013,-0.032,-0.069,-0.084,HR12039,0
12,-0.035,-0.031,-0.028,-0.021,-0.014,-0.015,-0.022,-0.036,-0.036,-0.022,-0.01,0.002,-0.022,-0.018,0.014,0.01,0.013,0.019,0.02,0.021,0.025,0.029,0.033,0.038,0.04,0.04,0.053,0.05,0.042,0.038,0.03,0.026,0.018,0.015,0.014,0.005,0.005,0.001,-0.013,-0.029,-0.04,-0.049,-0.048,-0.041,-0.033,-0.025,-0.017,-0.008,-0.021,-0.042,-0.035,-0.03,-0.03,-0.028,-0.025,-0.025,-0.021,-0.016,-0.015,-0.014,-0.01,-0.01,-0.007,-0.004,-0.005,-0.005,-0.005,-0.005,-0.004,-0.008,-0.015,0.002,-0.002,-0.03,-0.046,-0.04,-0.038,-0.016,0.0,0.037,0.125,0.172,0.244,0.349,0.429,0.47,0.548,0.625,0.613,0.529,0.46,0.378,0.209,0.072,0.0,-0.1,-0.192,-0.249,-0.276,-0.286,-0.285,-0.282,-0.302,-0.307,-0.293,-0.295,-0.289,-0.267,-0.247,-0.229,-0.2,-0.183,-0.171,-0.157,-0.141,-0.13,-0.129,-0.101,-0.078,-0.073,-0.06,-0.051,-0.049,-0.052,-0.056,-0.06,-0.064,-0.066,-0.063,-0.06,-0.065,-0.065,-0.066,-0.061,-0.054,-0.05,-0.038,-0.03,-0.032,-0.035,-0.035,-0.035,-0.032,-0.029,-0.031,-0.035,-0.035,-0.035,-0.035,-0.034,-0.03,-0.029,-0.034,-0.034,-0.029,-0.03,-0.03,-0.03,-0.03,-0.03,-0.03,-0.03,-0.03,-0.028,-0.024,-0.025,-0.03,-0.027,-0.024,-0.026,-0.03,-0.03,-0.029,-0.016,-0.004,-0.01,-0.011,-0.007,-0.005,-0.005,-0.005,-0.005,-0.005,-0.005,-0.005,-0.005,-0.001,0.004,0.005,0.006,0.015,0.019,0.023,0.027,0.031,0.035,0.039,0.043,0.048,0.049,0.05,0.067,0.069,0.063,0.066,0.07,0.07,0.07,0.07,0.071,0.075,0.075,0.075,0.075,0.075,0.075,0.079,0.08,0.08,0.08,0.08,0.079,0.09,0.109,0.114,0.105,0.101,0.097,0.093,0.089,0.085,0.085,0.083,0.077,0.075,0.075,0.071,0.067,0.063,0.059,0.055,0.051,0.047,0.043,0.039,0.035,0.035,0.032,0.029,0.03,0.03,0.026,0.021,0.02,0.019,0.015,0.015,0.015,0.014,0.016,0.02,0.016,0.014,0.015,0.015,0.015,0.015,0.015,0.015,0.014,0.01,0.01,0.01,0.012,0.015,0.015,0.015,0.015,0.014,0.017,0.03,0.039,0.037,0.035,0.035,0.03,0.028,0.044,0.048,0.039,0.04,0.04,0.037,0.032,0.03,0.03,0.026,0.025,0.024,0.019,0.015,HR12682,0
13,-0.015,-0.015,-0.015,-0.015,-0.015,-0.014,-0.017,-0.025,-0.022,-0.016,-0.014,-0.015,-0.015,-0.009,-0.022,-0.034,-0.036,-0.035,-0.012,0.015,0.016,-0.005,-0.015,-0.012,-0.007,-0.003,0.001,0.005,0.005,0.008,0.012,0.016,0.02,0.025,0.024,0.031,0.05,0.065,0.062,0.056,0.054,0.047,0.03,0.014,0.0,-0.009,-0.008,0.0,-0.008,-0.011,-0.012,-0.016,-0.015,-0.015,-0.015,-0.015,-0.016,-0.02,-0.02,-0.02,-0.02,-0.02,-0.02,-0.021,-0.017,-0.03,-0.047,-0.04,-0.035,-0.035,-0.033,-0.03,-0.03,-0.026,-0.021,-0.022,-0.025,-0.025,-0.029,-0.031,-0.027,-0.026,-0.04,-0.059,-0.05,-0.035,-0.027,-0.015,-0.007,0.041,0.09,0.144,0.245,0.341,0.441,0.515,0.563,0.6,0.595,0.638,0.591,0.441,0.32,0.174,0.056,-0.05,-0.153,-0.23,-0.284,-0.286,-0.265,-0.263,-0.285,-0.295,-0.289,-0.269,-0.262,-0.275,-0.258,-0.227,-0.209,-0.194,-0.16,-0.13,-0.12,-0.119,-0.105,-0.075,-0.049,-0.043,-0.046,-0.045,-0.045,-0.041,-0.039,-0.042,-0.046,-0.045,-0.041,-0.039,-0.042,-0.045,-0.04,-0.04,-0.04,-0.04,-0.04,-0.04,-0.04,-0.04,-0.04,-0.039,-0.035,-0.035,-0.035,-0.035,-0.034,-0.03,-0.03,-0.03,-0.03,-0.03,-0.03,-0.026,-0.025,-0.025,-0.025,-0.025,-0.021,-0.02,-0.02,-0.02,-0.02,-0.02,-0.02,-0.02,-0.019,-0.015,-0.015,-0.015,-0.015,-0.015,-0.015,-0.011,-0.009,-0.011,-0.009,-0.005,-0.005,-0.002,0.0,0.0,0.005,0.01,0.007,0.006,0.011,0.015,0.015,0.018,0.022,0.026,0.03,0.033,0.048,0.056,0.048,0.045,0.045,0.042,0.038,0.035,0.035,0.038,0.051,0.067,0.077,0.085,0.089,0.093,0.095,0.096,0.1,0.105,0.105,0.107,0.11,0.11,0.114,0.113,0.107,0.105,0.105,0.105,0.102,0.1,0.1,0.1,0.1,0.097,0.095,0.094,0.095,0.117,0.116,0.107,0.104,0.1,0.092,0.086,0.085,0.084,0.08,0.076,0.071,0.07,0.069,0.065,0.061,0.057,0.053,0.05,0.05,0.046,0.044,0.046,0.044,0.04,0.04,0.037,0.035,0.035,0.03,0.026,0.025,0.024,0.019,0.015,0.015,0.012,0.008,0.004,0.005,0.009,0.01,0.01,0.009,0.005,0.009,0.011,0.008,0.004,0.005,0.008,0.016,0.022,0.026,0.03,0.034,0.041,0.048,HR12682,0
14,0.005,-0.004,-0.004,0.004,0.003,-0.01,-0.013,0.005,0.02,0.019,0.015,0.01,0.016,0.02,0.022,0.03,0.028,0.046,0.056,0.05,0.055,0.06,0.06,0.061,0.067,0.07,0.058,0.054,0.054,0.049,0.045,0.045,0.045,0.046,0.042,0.025,0.016,0.01,-0.003,-0.017,-0.02,-0.02,-0.019,-0.022,-0.025,-0.025,-0.025,-0.025,-0.025,-0.016,0.0,-0.003,-0.006,-0.005,-0.005,-0.005,-0.009,-0.01,-0.01,-0.01,-0.01,-0.014,-0.015,-0.015,-0.015,-0.015,-0.015,-0.018,-0.021,-0.02,-0.015,-0.007,-0.037,-0.063,-0.066,-0.07,-0.055,-0.037,-0.024,-0.011,0.025,0.098,0.158,0.251,0.371,0.455,0.546,0.639,0.696,0.685,0.63,0.589,0.476,0.313,0.176,0.08,-0.02,-0.085,-0.17,-0.243,-0.24,-0.263,-0.28,-0.293,-0.307,-0.305,-0.299,-0.273,-0.254,-0.247,-0.23,-0.217,-0.211,-0.177,-0.133,-0.125,-0.109,-0.095,-0.086,-0.078,-0.07,-0.066,-0.06,-0.051,-0.043,-0.04,-0.04,-0.038,-0.032,-0.03,-0.03,-0.026,-0.021,-0.02,-0.02,-0.015,-0.01,-0.013,-0.014,-0.009,-0.01,-0.01,-0.009,-0.012,-0.024,-0.04,-0.041,-0.036,-0.035,-0.034,-0.03,-0.03,-0.031,-0.028,-0.026,-0.03,-0.026,-0.024,-0.025,-0.025,-0.025,-0.025,-0.022,-0.019,-0.021,-0.025,-0.02,-0.023,-0.023,-0.021,-0.025,-0.02,-0.025,-0.034,-0.033,-0.025,-0.025,-0.023,-0.018,-0.014,-0.01,-0.01,-0.008,-0.002,0.0,0.0,0.008,0.01,0.012,0.015,0.02,0.038,0.035,0.046,0.067,0.06,0.059,0.063,0.065,0.065,0.065,0.06,0.065,0.073,0.076,0.08,0.085,0.082,0.096,0.118,0.12,0.12,0.12,0.12,0.12,0.12,0.12,0.12,0.12,0.12,0.12,0.12,0.119,0.122,0.125,0.125,0.125,0.125,0.125,0.125,0.125,0.125,0.125,0.125,0.124,0.12,0.12,0.115,0.105,0.099,0.095,0.087,0.078,0.073,0.069,0.065,0.065,0.062,0.06,0.059,0.055,0.051,0.047,0.044,0.045,0.045,0.041,0.041,0.036,0.029,0.03,0.026,0.024,0.026,0.023,0.015,0.011,0.007,0.003,-0.001,-0.005,-0.005,-0.005,-0.005,-0.006,-0.01,-0.01,-0.012,-0.017,-0.011,0.01,0.019,0.02,0.02,0.02,0.02,0.02,0.02,0.021,0.026,0.03,0.03,0.03,0.03,0.03,0.03,0.034,0.036,0.034,0.036,0.04,HR12682,0
15,-0.019,-0.015,-0.011,-0.01,-0.008,-0.005,-0.01,-0.014,-0.015,-0.014,-0.016,-0.02,-0.02,-0.02,-0.018,-0.015,-0.015,-0.015,-0.016,-0.012,-0.002,0.005,-0.007,-0.01,0.001,0.012,0.015,0.015,0.014,0.017,0.021,0.02,0.019,0.024,0.023,0.022,0.035,0.047,0.062,0.06,0.04,0.025,0.021,0.017,0.015,0.014,0.01,0.006,0.002,-0.002,-0.006,-0.01,-0.01,-0.01,-0.011,-0.017,-0.025,-0.025,-0.025,-0.025,-0.025,-0.025,-0.029,-0.027,-0.009,0.006,0.0,0.0,-0.002,-0.008,-0.01,-0.01,-0.014,-0.019,-0.02,-0.021,-0.025,-0.029,-0.034,-0.034,-0.037,-0.045,-0.043,-0.061,-0.07,-0.057,-0.045,-0.026,0.003,0.056,0.119,0.175,0.255,0.366,0.479,0.553,0.61,0.711,0.71,0.674,0.63,0.49,0.313,0.156,0.047,-0.055,-0.185,-0.262,-0.276,-0.278,-0.285,-0.285,-0.301,-0.307,-0.303,-0.308,-0.32,-0.317,-0.306,-0.279,-0.249,-0.225,-0.176,-0.147,-0.132,-0.116,-0.1,-0.083,-0.077,-0.07,-0.058,-0.05,-0.038,-0.026,-0.029,-0.035,-0.03,-0.034,-0.036,-0.035,-0.035,-0.035,-0.035,-0.035,-0.035,-0.036,-0.04,-0.04,-0.04,-0.04,-0.04,-0.04,-0.04,-0.04,-0.04,-0.041,-0.045,-0.045,-0.048,-0.05,-0.051,-0.055,-0.056,-0.052,-0.05,-0.05,-0.05,-0.051,-0.046,-0.047,-0.05,-0.045,-0.045,-0.043,-0.037,-0.035,-0.035,-0.031,-0.027,-0.024,-0.026,-0.025,-0.017,-0.014,-0.016,-0.014,-0.01,-0.006,-0.005,-0.004,0.001,0.005,0.005,0.008,0.01,0.011,0.015,0.015,0.015,0.014,0.016,0.025,0.029,0.032,0.039,0.047,0.05,0.052,0.068,0.074,0.07,0.08,0.088,0.096,0.102,0.106,0.11,0.106,0.105,0.105,0.105,0.105,0.103,0.117,0.127,0.125,0.125,0.125,0.125,0.125,0.125,0.125,0.117,0.108,0.103,0.099,0.09,0.075,0.092,0.111,0.117,0.125,0.113,0.106,0.102,0.093,0.085,0.076,0.073,0.064,0.053,0.05,0.042,0.034,0.026,0.018,0.015,0.015,0.015,0.015,0.015,0.015,0.011,0.01,0.01,0.01,0.01,0.006,0.005,0.005,0.006,0.01,0.011,0.007,0.005,0.005,0.005,0.005,0.002,-0.001,0.0,0.0,0.0,0.001,-0.002,-0.005,-0.005,-0.007,0.007,0.017,0.014,0.015,0.015,0.012,0.009,0.011,0.015,0.011,0.009,0.011,0.009,HR12682,0
16,-0.049,-0.051,-0.049,-0.045,-0.045,-0.046,-0.043,-0.04,-0.04,-0.04,-0.037,-0.034,-0.035,-0.035,-0.031,-0.029,-0.031,-0.029,-0.025,-0.028,-0.034,-0.033,-0.03,-0.035,-0.039,-0.04,-0.039,-0.041,-0.045,-0.042,-0.034,-0.027,-0.025,-0.02,-0.009,-0.022,-0.015,-0.011,-0.05,-0.033,-0.043,-0.042,-0.017,-0.025,-0.043,-0.04,-0.033,-0.027,-0.005,0.016,0.025,0.024,0.026,0.035,0.04,0.039,0.044,0.05,0.045,0.037,0.029,0.022,0.01,-0.015,-0.036,-0.047,-0.053,-0.063,-0.075,-0.076,-0.071,-0.07,-0.068,-0.06,-0.06,-0.058,-0.053,-0.049,-0.045,-0.041,-0.04,-0.04,-0.04,-0.04,-0.04,-0.04,-0.039,-0.034,-0.03,-0.03,-0.027,-0.025,-0.025,-0.02,-0.015,-0.015,-0.013,-0.01,-0.01,-0.016,-0.042,-0.061,-0.059,-0.06,-0.07,-0.095,-0.092,-0.056,-0.025,0.006,0.05,0.114,0.18,0.245,0.349,0.439,0.492,0.548,0.625,0.645,0.603,0.502,0.375,0.26,0.137,0.01,-0.105,-0.194,-0.25,-0.286,-0.291,-0.294,-0.299,-0.29,-0.302,-0.309,-0.312,-0.306,-0.275,-0.242,-0.218,-0.19,-0.176,-0.19,-0.179,-0.169,-0.157,-0.142,-0.135,-0.123,-0.11,-0.102,-0.1,-0.1,-0.096,-0.094,-0.095,-0.094,-0.09,-0.086,-0.085,-0.083,-0.08,-0.08,-0.08,-0.077,-0.073,-0.069,-0.065,-0.06,-0.063,-0.064,-0.06,-0.06,-0.056,-0.054,-0.056,-0.054,-0.05,-0.054,-0.056,-0.053,-0.05,-0.05,-0.05,-0.047,-0.044,-0.046,-0.05,-0.046,-0.045,-0.043,-0.04,-0.04,-0.036,-0.035,-0.033,-0.03,-0.03,-0.026,-0.025,-0.022,-0.013,-0.005,0.002,0.013,0.011,-0.003,-0.01,-0.017,-0.035,-0.05,-0.049,-0.04,-0.032,-0.023,-0.018,-0.013,-0.005,-0.007,-0.019,-0.013,0.01,0.025,0.036,0.058,0.078,0.088,0.1,0.109,0.107,0.104,0.105,0.105,0.105,0.106,0.103,0.1,0.1,0.1,0.103,0.105,0.105,0.105,0.101,0.1,0.1,0.1,0.1,0.1,0.097,0.095,0.095,0.095,0.103,0.109,0.109,0.104,0.1,0.096,0.091,0.09,0.089,0.085,0.081,0.08,0.079,0.074,0.07,0.07,0.067,0.063,0.059,0.055,0.055,0.052,0.048,0.044,0.04,0.041,0.034,0.029,0.029,0.025,0.029,0.03,0.033,0.034,0.03,0.047,0.046,0.039,0.04,0.035,0.03,0.03,0.029,0.024,0.02,0.02,0.018,HR12682,0
17,0.002,0.012,0.02,0.01,0.005,0.003,-0.004,-0.011,-0.015,-0.02,-0.015,-0.004,-0.001,-0.005,0.002,0.012,0.017,0.021,0.025,0.025,0.027,0.033,0.035,0.035,0.047,0.054,0.057,0.069,0.08,0.073,0.063,0.058,0.054,0.05,0.042,0.037,0.031,0.023,0.02,0.02,0.018,0.026,0.035,0.025,0.02,0.019,0.006,-0.014,-0.02,-0.02,-0.02,-0.02,-0.02,-0.02,-0.02,-0.019,-0.022,-0.025,-0.025,-0.025,-0.025,-0.025,-0.025,-0.025,-0.025,-0.025,-0.025,-0.025,-0.025,-0.025,-0.022,-0.02,-0.019,-0.015,-0.015,-0.017,-0.027,-0.045,-0.065,-0.083,-0.08,-0.074,-0.057,-0.01,0.029,0.085,0.173,0.293,0.41,0.462,0.537,0.628,0.694,0.71,0.646,0.595,0.482,0.302,0.165,0.063,-0.065,-0.167,-0.233,-0.295,-0.287,-0.268,-0.265,-0.264,-0.265,-0.285,-0.296,-0.293,-0.272,-0.235,-0.215,-0.19,-0.176,-0.173,-0.165,-0.166,-0.154,-0.138,-0.126,-0.11,-0.098,-0.086,-0.073,-0.064,-0.06,-0.048,-0.039,-0.03,-0.024,-0.025,-0.021,-0.02,-0.019,-0.022,-0.035,-0.04,-0.037,-0.034,-0.035,-0.035,-0.035,-0.035,-0.035,-0.035,-0.035,-0.035,-0.034,-0.037,-0.04,-0.04,-0.04,-0.04,-0.04,-0.04,-0.04,-0.04,-0.04,-0.041,-0.039,-0.03,-0.026,-0.022,-0.018,-0.013,-0.005,0.0,-0.004,-0.003,-0.009,-0.03,-0.023,-0.017,-0.011,-0.004,0.0,0.012,0.019,0.02,0.02,0.02,0.02,0.02,0.02,0.02,0.02,0.028,0.034,0.035,0.035,0.035,0.031,0.029,0.032,0.036,0.035,0.031,0.029,0.034,0.049,0.065,0.07,0.07,0.072,0.075,0.075,0.074,0.078,0.08,0.081,0.085,0.085,0.086,0.083,0.08,0.085,0.085,0.085,0.086,0.084,0.085,0.106,0.109,0.104,0.105,0.105,0.105,0.106,0.101,0.103,0.12,0.117,0.115,0.113,0.109,0.11,0.111,0.104,0.099,0.1,0.1,0.096,0.095,0.094,0.088,0.08,0.076,0.071,0.07,0.069,0.06,0.056,0.049,0.043,0.039,0.035,0.039,0.037,0.035,0.034,0.03,0.029,0.033,0.035,0.036,0.04,0.04,0.04,0.04,0.04,0.045,0.048,0.025,0.016,0.027,0.025,0.025,0.025,0.025,0.026,0.03,0.03,0.03,0.028,0.025,0.025,0.025,0.028,0.031,0.03,0.03,0.03,0.029,0.032,0.035,0.03,0.03,0.03,HR12682,0
18,0.005,0.016,0.032,0.032,0.024,0.02,0.005,-0.01,-0.003,0.003,-0.005,0.022,0.011,0.001,0.018,0.025,0.033,0.041,0.051,0.063,0.07,0.066,0.067,0.057,0.044,0.055,0.065,0.06,0.05,0.044,0.04,0.035,0.036,0.031,0.024,0.025,0.022,0.014,0.023,0.036,0.03,0.03,0.025,0.017,0.014,0.01,0.002,-0.003,-0.007,-0.01,-0.01,-0.01,-0.013,-0.017,-0.021,-0.02,-0.016,-0.015,-0.015,-0.016,-0.02,-0.02,-0.02,-0.02,-0.02,-0.02,-0.02,-0.023,-0.026,-0.025,-0.025,-0.029,-0.03,-0.031,-0.038,-0.06,-0.093,-0.076,-0.039,-0.014,0.02,0.081,0.162,0.25,0.363,0.49,0.557,0.651,0.729,0.728,0.67,0.584,0.481,0.336,0.181,0.065,-0.049,-0.141,-0.219,-0.264,-0.255,-0.254,-0.258,-0.278,-0.296,-0.285,-0.285,-0.277,-0.249,-0.219,-0.205,-0.203,-0.217,-0.214,-0.189,-0.17,-0.15,-0.131,-0.107,-0.086,-0.075,-0.059,-0.044,-0.041,-0.046,-0.045,-0.045,-0.045,-0.045,-0.045,-0.045,-0.049,-0.05,-0.05,-0.05,-0.05,-0.05,-0.05,-0.05,-0.05,-0.05,-0.041,-0.04,-0.037,-0.029,-0.025,-0.017,-0.011,-0.012,-0.016,-0.015,-0.015,-0.016,-0.013,-0.011,-0.015,-0.013,-0.027,-0.036,-0.028,-0.02,-0.016,-0.012,-0.007,0.003,0.005,-0.016,-0.019,-0.013,-0.016,-0.02,-0.02,-0.019,-0.022,-0.025,-0.025,-0.025,-0.028,-0.031,-0.029,-0.025,-0.021,-0.014,-0.008,-0.004,0.0,-0.001,0.009,0.018,0.022,0.03,0.034,0.04,0.05,0.055,0.05,0.046,0.042,0.039,0.041,0.045,0.045,0.047,0.053,0.055,0.055,0.058,0.066,0.074,0.083,0.095,0.103,0.114,0.126,0.13,0.125,0.125,0.126,0.123,0.12,0.12,0.116,0.111,0.11,0.11,0.11,0.106,0.104,0.106,0.104,0.1,0.1,0.1,0.099,0.094,0.09,0.091,0.084,0.079,0.079,0.075,0.076,0.069,0.064,0.064,0.06,0.06,0.057,0.055,0.054,0.05,0.05,0.047,0.044,0.045,0.045,0.041,0.039,0.041,0.038,0.03,0.029,0.031,0.028,0.025,0.025,0.021,0.016,0.014,0.015,0.015,0.011,0.01,0.008,0.005,0.01,0.01,0.01,0.011,0.009,0.005,0.009,0.011,0.01,0.01,0.01,0.01,0.007,0.004,0.005,0.005,0.001,-0.003,-0.006,-0.003,0.01,0.018,0.025,0.035,0.04,0.035,HR12682,0
19,-0.017,-0.013,-0.008,-0.005,-0.013,-0.015,-0.017,-0.02,-0.02,-0.02,-0.016,-0.016,-0.02,-0.02,-0.024,-0.025,-0.025,-0.024,-0.02,-0.013,-0.001,-0.007,-0.012,0.0,-0.042,-0.044,-0.021,-0.013,0.0,0.029,0.04,0.041,0.046,0.05,0.054,0.057,0.065,0.07,0.065,0.06,0.06,0.059,0.052,0.035,0.018,0.013,0.019,0.026,0.02,-0.005,-0.016,-0.015,-0.015,-0.015,-0.013,-0.027,-0.037,-0.035,-0.035,-0.035,-0.034,-0.037,-0.04,-0.04,-0.04,-0.04,-0.04,-0.04,-0.04,-0.04,-0.04,-0.04,-0.04,-0.04,-0.04,-0.037,-0.033,-0.037,-0.04,-0.015,-0.01,-0.019,-0.019,-0.02,-0.041,-0.047,-0.059,-0.068,-0.045,-0.031,0.004,0.058,0.133,0.235,0.328,0.419,0.51,0.596,0.675,0.729,0.696,0.645,0.572,0.405,0.229,0.089,-0.043,-0.176,-0.27,-0.311,-0.317,-0.312,-0.31,-0.315,-0.318,-0.328,-0.324,-0.306,-0.295,-0.279,-0.265,-0.257,-0.236,-0.185,-0.137,-0.121,-0.119,-0.114,-0.11,-0.107,-0.096,-0.085,-0.078,-0.07,-0.058,-0.049,-0.039,-0.038,-0.055,-0.052,-0.05,-0.048,-0.044,-0.045,-0.045,-0.042,-0.039,-0.04,-0.04,-0.036,-0.034,-0.038,-0.03,-0.005,-0.012,-0.02,-0.019,-0.021,-0.03,-0.035,-0.035,-0.037,-0.04,-0.04,-0.04,-0.037,-0.034,-0.035,-0.035,-0.035,-0.032,-0.029,-0.031,-0.035,-0.031,-0.03,-0.03,-0.03,-0.03,-0.026,-0.025,-0.025,-0.025,-0.025,-0.017,-0.013,-0.003,0.013,0.015,0.015,0.015,0.015,0.015,0.015,0.015,0.014,0.019,0.026,0.025,0.025,0.025,0.027,0.03,0.03,0.03,0.032,0.039,0.047,0.05,0.05,0.051,0.048,0.054,0.075,0.072,0.069,0.07,0.071,0.075,0.075,0.075,0.075,0.075,0.075,0.083,0.088,0.094,0.101,0.105,0.113,0.118,0.122,0.118,0.115,0.145,0.147,0.137,0.134,0.125,0.121,0.118,0.111,0.104,0.105,0.102,0.093,0.089,0.09,0.085,0.076,0.075,0.074,0.069,0.065,0.057,0.052,0.048,0.044,0.04,0.036,0.032,0.026,0.018,0.015,0.016,0.009,0.004,0.005,0.005,0.001,-0.004,-0.005,-0.006,-0.01,-0.014,-0.016,-0.013,-0.01,-0.01,-0.01,-0.01,-0.01,-0.01,-0.01,-0.01,-0.01,-0.01,-0.009,-0.005,-0.005,-0.005,-0.005,-0.006,-0.01,-0.01,-0.01,-0.01,-0.01,-0.01,-0.006,-0.005,HR12682,0
20,-0.007,0.002,0.005,0.005,0.003,-0.004,-0.012,-0.02,-0.024,-0.03,-0.041,-0.043,-0.025,-0.011,-0.015,-0.007,0.014,0.02,0.028,0.033,0.038,0.048,0.06,0.066,0.057,0.044,0.04,0.05,0.064,0.06,0.054,0.054,0.05,0.047,0.033,0.02,0.014,0.005,-0.006,0.008,0.012,-0.002,0.0,0.006,-0.009,-0.027,-0.03,-0.03,-0.03,-0.029,-0.032,-0.035,-0.035,-0.035,-0.035,-0.037,-0.041,-0.04,-0.039,-0.046,-0.051,-0.05,-0.05,-0.05,-0.053,-0.056,-0.055,-0.055,-0.058,-0.036,-0.024,-0.031,-0.03,-0.038,-0.041,-0.04,-0.04,-0.045,-0.063,-0.061,-0.051,-0.042,-0.01,0.058,0.118,0.191,0.29,0.39,0.491,0.585,0.671,0.703,0.67,0.652,0.53,0.389,0.269,0.12,0.035,-0.067,-0.188,-0.26,-0.27,-0.285,-0.303,-0.301,-0.296,-0.31,-0.306,-0.278,-0.275,-0.282,-0.25,-0.223,-0.22,-0.197,-0.149,-0.12,-0.12,-0.115,-0.107,-0.104,-0.1,-0.096,-0.092,-0.088,-0.084,-0.08,-0.065,-0.045,-0.043,-0.05,-0.04,-0.039,-0.041,-0.037,-0.036,-0.04,-0.037,-0.031,-0.03,-0.03,-0.03,-0.03,-0.033,-0.037,-0.04,-0.04,-0.04,-0.039,-0.044,-0.051,-0.05,-0.05,-0.05,-0.05,-0.049,-0.045,-0.041,-0.04,-0.04,-0.039,-0.035,-0.031,-0.03,-0.029,-0.024,-0.02,-0.024,-0.029,-0.03,-0.03,-0.03,-0.03,-0.03,-0.03,-0.03,-0.025,-0.014,0.0,0.006,0.005,0.005,0.009,0.01,0.012,0.016,0.015,0.014,0.018,0.02,0.021,0.025,0.025,0.028,0.031,0.03,0.03,0.034,0.035,0.037,0.04,0.04,0.04,0.038,0.048,0.071,0.09,0.095,0.095,0.095,0.095,0.095,0.099,0.1,0.1,0.1,0.1,0.1,0.097,0.094,0.095,0.095,0.091,0.089,0.094,0.102,0.105,0.105,0.105,0.105,0.105,0.105,0.101,0.099,0.101,0.099,0.095,0.094,0.098,0.101,0.099,0.095,0.095,0.095,0.095,0.094,0.09,0.089,0.091,0.085,0.072,0.065,0.061,0.055,0.044,0.033,0.03,0.022,0.013,0.008,0.004,0.0,-0.003,-0.012,-0.014,-0.009,-0.01,-0.011,-0.007,-0.005,-0.005,-0.005,-0.005,-0.002,0.001,0.0,0.0,0.0,0.0,0.0,0.0,0.0,0.004,0.005,0.005,0.005,0.005,0.009,0.01,0.01,0.01,0.01,0.01,0.009,0.012,0.015,0.015,0.015,0.015,0.015,HR12682,0
21,-0.034,-0.037,-0.04,-0.04,-0.045,-0.043,-0.039,-0.041,-0.045,-0.04,-0.043,-0.044,-0.031,-0.02,-0.037,-0.038,-0.035,-0.033,-0.02,-0.016,-0.006,0.003,0.005,0.005,0.001,0.0,-0.001,0.001,0.01,0.014,0.018,0.022,0.027,0.035,0.038,0.05,0.055,0.049,0.045,0.041,0.037,0.031,0.023,0.015,0.007,-0.004,-0.014,-0.023,-0.03,-0.019,-0.009,-0.016,-0.034,-0.045,-0.05,-0.05,-0.051,-0.056,-0.06,-0.063,-0.073,-0.053,-0.022,-0.03,-0.03,-0.033,-0.036,-0.035,-0.035,-0.039,-0.041,-0.039,-0.041,-0.045,-0.045,-0.044,-0.047,-0.05,-0.05,-0.05,-0.048,-0.04,-0.035,-0.04,-0.036,-0.038,-0.04,-0.032,-0.01,0.034,0.077,0.145,0.246,0.35,0.448,0.526,0.579,0.628,0.675,0.666,0.569,0.431,0.279,0.125,0.027,-0.07,-0.179,-0.241,-0.235,-0.254,-0.272,-0.291,-0.316,-0.325,-0.307,-0.284,-0.285,-0.287,-0.255,-0.227,-0.229,-0.206,-0.162,-0.15,-0.142,-0.131,-0.119,-0.108,-0.1,-0.092,-0.081,-0.07,-0.064,-0.06,-0.056,-0.055,-0.055,-0.055,-0.055,-0.056,-0.051,-0.051,-0.056,-0.055,-0.055,-0.055,-0.055,-0.054,-0.05,-0.05,-0.05,-0.052,-0.056,-0.055,-0.051,-0.05,-0.05,-0.051,-0.055,-0.055,-0.055,-0.055,-0.055,-0.055,-0.055,-0.058,-0.06,-0.06,-0.06,-0.056,-0.051,-0.052,-0.055,-0.05,-0.05,-0.048,-0.042,-0.04,-0.04,-0.032,-0.029,-0.032,-0.036,-0.035,-0.031,-0.03,-0.029,-0.024,-0.02,-0.016,-0.015,-0.013,-0.01,-0.01,-0.006,-0.005,-0.004,0.001,0.005,0.005,0.008,0.011,0.009,0.01,0.018,0.023,0.03,0.043,0.05,0.054,0.058,0.06,0.06,0.06,0.053,0.073,0.09,0.09,0.09,0.09,0.09,0.09,0.09,0.09,0.092,0.108,0.115,0.109,0.11,0.106,0.104,0.106,0.104,0.1,0.1,0.097,0.094,0.096,0.095,0.087,0.085,0.084,0.079,0.075,0.075,0.072,0.07,0.069,0.065,0.061,0.059,0.061,0.058,0.05,0.049,0.051,0.046,0.039,0.04,0.04,0.037,0.032,0.03,0.03,0.026,0.025,0.024,0.018,0.01,0.01,0.008,0.003,-0.001,-0.005,-0.01,-0.009,-0.013,-0.022,-0.025,-0.025,-0.028,-0.032,-0.036,-0.035,-0.031,-0.03,-0.028,-0.025,-0.025,-0.021,-0.02,-0.018,-0.015,-0.015,-0.011,-0.01,-0.008,-0.005,-0.005,0.0,-0.002,HR12682,0
22,-0.015,-0.017,-0.02,-0.02,-0.024,-0.025,-0.027,-0.03,-0.03,-0.035,-0.032,-0.03,-0.029,-0.025,-0.026,-0.019,-0.03,-0.036,-0.01,-0.029,-0.037,-0.023,-0.014,-0.015,-0.011,-0.007,-0.017,-0.024,-0.01,-0.003,0.013,0.022,0.019,0.015,0.015,0.016,0.013,0.01,0.01,0.001,0.004,0.016,0.027,0.035,0.039,0.041,0.038,0.034,0.03,0.026,0.023,0.016,0.017,0.025,0.013,0.007,0.016,0.0,-0.05,-0.049,-0.037,-0.033,-0.028,-0.02,-0.016,-0.012,-0.01,-0.01,-0.01,-0.01,-0.013,-0.016,-0.015,-0.015,-0.018,-0.027,-0.031,-0.038,-0.055,-0.06,-0.061,-0.058,-0.055,-0.06,-0.06,-0.061,-0.055,-0.051,-0.06,-0.064,-0.068,-0.07,-0.071,-0.07,-0.05,0.002,0.084,0.151,0.19,0.293,0.419,0.522,0.606,0.685,0.718,0.683,0.646,0.585,0.435,0.269,0.124,0.031,-0.067,-0.205,-0.257,-0.262,-0.272,-0.288,-0.3,-0.329,-0.342,-0.336,-0.319,-0.295,-0.291,-0.278,-0.25,-0.243,-0.255,-0.216,-0.181,-0.158,-0.135,-0.115,-0.078,-0.059,-0.067,-0.084,-0.1,-0.118,-0.116,-0.105,-0.098,-0.09,-0.078,-0.069,-0.06,-0.055,-0.06,-0.061,-0.057,-0.054,-0.056,-0.06,-0.056,-0.054,-0.058,-0.06,-0.055,-0.055,-0.056,-0.053,-0.049,-0.045,-0.041,-0.04,-0.039,-0.033,-0.03,-0.042,-0.052,-0.058,-0.068,-0.075,-0.071,-0.067,-0.063,-0.06,-0.06,-0.056,-0.051,-0.05,-0.049,-0.045,-0.04,-0.04,-0.038,-0.035,-0.035,-0.035,-0.035,-0.035,-0.035,-0.035,-0.035,-0.035,-0.036,-0.033,-0.025,-0.024,-0.026,-0.023,-0.02,-0.02,-0.02,-0.021,-0.018,-0.015,-0.015,-0.008,0.004,0.014,0.022,0.03,0.038,0.047,0.051,0.05,0.05,0.054,0.055,0.057,0.061,0.06,0.06,0.063,0.066,0.065,0.065,0.065,0.067,0.076,0.087,0.09,0.09,0.087,0.084,0.086,0.09,0.091,0.087,0.085,0.085,0.085,0.09,0.087,0.084,0.085,0.085,0.081,0.076,0.075,0.074,0.07,0.065,0.065,0.063,0.06,0.06,0.052,0.046,0.043,0.039,0.035,0.032,0.023,0.019,0.02,0.015,0.006,0.005,0.002,-0.008,-0.015,-0.011,-0.01,-0.01,-0.011,-0.015,-0.015,-0.015,-0.015,-0.016,-0.02,-0.02,-0.02,-0.02,-0.02,-0.02,-0.024,-0.025,-0.025,-0.025,-0.025,-0.029,-0.03,-0.03,-0.03,-0.03,-0.031,-0.025,HR12682,0
23,-0.044,-0.04,-0.04,-0.04,-0.04,-0.041,-0.045,-0.049,-0.05,-0.05,-0.05,-0.05,-0.046,-0.044,-0.047,-0.042,-0.035,-0.055,-0.063,-0.057,-0.055,-0.055,-0.052,-0.04,-0.033,-0.036,-0.04,-0.035,-0.038,-0.039,-0.034,-0.03,-0.024,0.0,0.011,0.004,0.005,0.005,0.005,0.005,0.005,0.005,0.012,0.027,0.026,0.012,0.005,-0.007,-0.017,-0.022,-0.027,-0.035,-0.039,-0.043,-0.047,-0.05,-0.05,-0.046,-0.042,-0.039,-0.033,-0.03,-0.046,-0.056,-0.051,-0.053,-0.07,-0.066,-0.066,-0.058,-0.043,-0.045,-0.045,-0.045,-0.045,-0.045,-0.045,-0.045,-0.045,-0.045,-0.045,-0.045,-0.045,-0.045,-0.045,-0.045,-0.045,-0.045,-0.045,-0.045,-0.045,-0.045,-0.045,-0.045,-0.028,0.02,0.09,0.159,0.257,0.372,0.464,0.525,0.6,0.673,0.668,0.588,0.485,0.329,0.157,0.031,-0.049,-0.13,-0.221,-0.276,-0.285,-0.289,-0.315,-0.331,-0.35,-0.352,-0.336,-0.32,-0.298,-0.298,-0.281,-0.26,-0.27,-0.243,-0.222,-0.203,-0.172,-0.145,-0.122,-0.094,-0.084,-0.092,-0.1,-0.109,-0.111,-0.108,-0.105,-0.105,-0.106,-0.099,-0.094,-0.095,-0.095,-0.091,-0.086,-0.085,-0.084,-0.08,-0.075,-0.075,-0.073,-0.07,-0.07,-0.066,-0.061,-0.06,-0.059,-0.06,-0.073,-0.074,-0.068,-0.064,-0.06,-0.064,-0.063,-0.057,-0.055,-0.055,-0.051,-0.049,-0.051,-0.049,-0.045,-0.045,-0.046,-0.041,-0.034,-0.035,-0.032,-0.022,-0.04,-0.068,-0.06,-0.051,-0.05,-0.049,-0.044,-0.04,-0.035,-0.036,-0.032,-0.023,-0.02,-0.021,-0.014,-0.009,-0.009,-0.005,-0.005,-0.004,-0.008,-0.009,0.0,0.004,0.011,0.018,0.021,0.025,0.034,0.035,0.037,0.04,0.04,0.042,0.027,0.019,0.027,0.03,0.034,0.038,0.042,0.046,0.05,0.058,0.063,0.069,0.076,0.08,0.088,0.094,0.093,0.09,0.09,0.086,0.085,0.085,0.077,0.07,0.086,0.093,0.086,0.078,0.07,0.066,0.062,0.058,0.055,0.055,0.055,0.055,0.054,0.049,0.045,0.045,0.042,0.04,0.039,0.03,0.021,0.017,0.012,0.011,0.015,0.012,0.006,0.005,0.004,0.0,0.0,0.0,0.0,0.0,0.0,0.0,0.0,0.0,-0.001,-0.005,-0.005,-0.004,-0.007,-0.01,-0.01,-0.01,-0.013,-0.016,-0.015,-0.015,-0.019,-0.024,-0.025,-0.026,-0.03,-0.031,-0.026,-0.026,-0.031,HR12682,0
24,-0.01,-0.01,-0.01,-0.01,0.0,-0.02,-0.015,-0.02,-0.015,-0.01,-0.015,-0.015,-0.005,-0.01,-0.015,-0.015,-0.015,-0.015,0.0,0.0,-0.024,-0.039,-0.029,-0.024,-0.029,-0.034,-0.029,-0.024,-0.024,-0.024,-0.015,-0.015,-0.01,-0.005,-0.01,-0.02,-0.024,-0.02,-0.01,-0.005,-0.01,-0.015,-0.015,-0.005,-0.005,0.0,0.015,0.01,0.02,0.024,0.02,0.024,0.02,0.0,0.0,-0.01,-0.02,-0.01,-0.01,0.0,0.005,-0.005,-0.005,-0.015,-0.024,-0.029,-0.044,-0.059,-0.073,-0.083,-0.083,-0.078,-0.059,-0.059,-0.059,-0.068,-0.078,-0.078,-0.068,-0.078,-0.083,-0.078,-0.078,-0.078,-0.078,-0.078,-0.078,-0.093,-0.102,-0.102,-0.107,-0.098,-0.098,-0.093,-0.088,-0.088,-0.078,-0.098,-0.112,-0.117,-0.122,-0.146,-0.156,-0.185,-0.195,-0.19,-0.185,-0.166,-0.151,-0.107,-0.049,0.015,0.107,0.205,0.303,0.41,0.522,0.63,0.727,0.737,0.649,0.493,0.327,0.19,0.073,-0.015,-0.068,-0.102,-0.117,-0.156,-0.195,-0.195,-0.2,-0.2,-0.19,-0.181,-0.166,-0.151,-0.151,-0.137,-0.132,-0.127,-0.137,-0.127,-0.102,-0.117,-0.127,-0.122,-0.132,-0.127,-0.112,-0.127,-0.117,-0.117,-0.127,-0.122,-0.117,-0.122,-0.122,-0.127,-0.122,-0.112,-0.117,-0.112,-0.117,-0.112,-0.112,-0.117,-0.122,-0.132,-0.127,-0.112,-0.107,-0.112,-0.117,-0.122,-0.117,-0.117,-0.122,-0.117,-0.117,-0.107,-0.117,-0.122,-0.117,-0.122,-0.122,-0.117,-0.122,-0.122,-0.107,-0.107,-0.107,-0.107,-0.107,-0.112,-0.117,-0.112,-0.112,-0.112,-0.112,-0.107,-0.102,-0.107,-0.107,-0.107,-0.107,-0.107,-0.112,-0.117,-0.102,-0.098,-0.098,-0.088,-0.098,-0.107,-0.098,-0.102,-0.107,-0.107,-0.107,-0.098,-0.093,-0.098,-0.093,-0.093,-0.098,-0.107,-0.117,-0.112,-0.107,-0.098,-0.088,-0.088,-0.088,-0.093,-0.098,-0.093,-0.088,-0.088,-0.078,-0.088,-0.093,-0.083,-0.083,-0.088,-0.098,-0.098,-0.098,-0.102,-0.093,-0.093,-0.088,-0.078,-0.078,-0.083,-0.088,-0.093,-0.083,-0.078,-0.078,-0.078,-0.083,-0.083,-0.063,-0.063,-0.059,-0.063,-0.063,-0.068,-0.083,-0.068,-0.063,-0.068,-0.068,-0.068,-0.073,-0.068,-0.078,-0.078,-0.073,-0.078,-0.068,-0.073,-0.078,-0.068,-0.063,-0.068,-0.059,-0.059,-0.063,-0.059,-0.044,-0.029,-0.034,-0.054,-0.059,-0.059,-0.054,-0.039,-0.044,JS04714,0
25,0.0,-0.015,-0.02,-0.02,-0.015,-0.02,-0.01,-0.01,-0.005,0.0,-0.01,-0.01,-0.015,-0.029,-0.029,-0.024,-0.024,-0.024,-0.024,-0.02,-0.015,-0.01,-0.015,-0.015,-0.01,-0.005,-0.01,-0.005,0.0,0.0,0.01,0.015,0.01,0.015,0.01,0.01,0.01,0.02,0.024,0.024,0.044,0.068,0.073,0.063,0.059,0.054,0.049,0.02,0.01,0.015,0.015,0.02,0.024,0.029,0.029,0.024,0.029,0.029,0.02,0.02,0.02,0.015,0.015,0.01,-0.015,-0.024,-0.034,-0.029,-0.029,-0.029,-0.01,-0.01,-0.02,-0.01,-0.02,-0.034,-0.029,-0.024,-0.015,-0.01,-0.024,-0.034,-0.039,-0.044,-0.044,-0.044,-0.034,-0.034,-0.029,-0.029,-0.034,-0.044,-0.049,-0.049,-0.063,-0.088,-0.107,-0.127,-0.142,-0.132,-0.132,-0.117,-0.073,-0.039,0.015,0.078,0.161,0.264,0.381,0.503,0.6,0.688,0.786,0.805,0.712,0.556,0.41,0.273,0.166,0.083,0.024,-0.02,-0.054,-0.083,-0.117,-0.137,-0.142,-0.146,-0.127,-0.112,-0.098,-0.088,-0.073,-0.068,-0.054,-0.044,-0.039,-0.044,-0.044,-0.044,-0.059,-0.068,-0.073,-0.068,-0.059,-0.054,-0.054,-0.054,-0.044,-0.039,-0.049,-0.063,-0.054,-0.049,-0.054,-0.044,-0.044,-0.054,-0.049,-0.044,-0.039,-0.054,-0.049,-0.068,-0.073,-0.063,-0.054,-0.049,-0.039,-0.044,-0.044,-0.044,-0.049,-0.044,-0.039,-0.054,-0.044,-0.054,-0.049,-0.039,-0.049,-0.039,-0.039,-0.044,-0.059,-0.049,-0.044,-0.034,-0.054,-0.054,-0.044,-0.044,-0.034,-0.044,-0.049,-0.044,-0.049,-0.039,-0.034,-0.044,-0.044,-0.049,-0.049,-0.049,-0.049,-0.039,-0.029,-0.034,-0.029,-0.034,-0.039,-0.034,-0.029,-0.024,-0.029,-0.029,-0.024,-0.029,-0.029,-0.024,-0.034,-0.029,-0.024,-0.034,-0.034,-0.029,-0.015,-0.02,-0.024,-0.02,-0.024,-0.024,-0.015,-0.024,-0.024,-0.01,-0.015,-0.015,-0.02,-0.01,-0.005,-0.01,-0.005,-0.01,-0.024,-0.024,-0.015,-0.024,-0.015,-0.02,-0.02,-0.015,-0.01,0.0,-0.005,-0.01,0.0,-0.005,-0.015,-0.02,-0.024,-0.015,-0.01,-0.015,-0.015,-0.005,0.015,-0.01,-0.024,-0.02,-0.02,-0.015,-0.015,-0.02,-0.015,-0.01,-0.01,-0.005,-0.01,-0.01,-0.01,-0.015,-0.01,0.0,-0.01,0.0,0.0,-0.005,0.005,0.005,0.0,-0.005,0.0,-0.005,-0.005,0.005,0.01,-0.01,-0.01,-0.01,0.005,JS04714,0
26,-0.02,-0.015,-0.015,-0.02,-0.024,-0.015,-0.015,-0.005,0.0,-0.005,-0.015,-0.015,-0.005,0.005,0.005,0.01,0.0,-0.005,-0.015,-0.024,-0.015,-0.01,-0.015,-0.015,-0.01,-0.005,0.0,0.005,0.01,0.029,0.02,0.01,0.015,0.015,0.02,0.024,0.024,0.039,0.029,0.044,0.049,0.044,0.054,0.059,0.049,0.059,0.073,0.083,0.078,0.073,0.078,0.063,0.059,0.059,0.054,0.059,0.068,0.068,0.073,0.073,0.068,0.068,0.059,0.063,0.049,0.034,0.029,0.029,0.02,0.024,0.024,0.034,0.039,0.044,0.044,0.044,0.029,0.029,0.02,0.029,0.039,0.039,0.039,0.029,0.039,0.039,0.02,0.024,0.02,0.02,0.02,0.024,0.02,0.02,0.015,0.01,0.005,-0.015,-0.029,-0.049,-0.078,-0.098,-0.088,-0.073,-0.054,-0.01,0.049,0.112,0.181,0.273,0.386,0.493,0.595,0.722,0.81,0.869,0.888,0.795,0.644,0.508,0.4,0.293,0.205,0.127,0.073,0.044,0.034,0.01,0.005,0.015,0.024,0.02,0.029,0.024,0.005,0.01,0.01,0.01,0.02,0.029,0.044,0.029,0.029,0.039,0.029,0.01,0.005,-0.005,0.005,0.01,0.02,0.024,0.02,0.02,0.015,0.005,0.01,0.02,0.024,0.02,0.015,0.015,0.024,0.01,0.01,0.005,0.015,0.015,0.005,0.015,0.02,0.01,0.015,0.005,0.02,0.015,0.01,0.015,0.02,0.015,0.02,0.015,0.015,0.02,0.02,0.02,0.015,0.01,0.015,0.015,0.005,0.005,0.005,0.005,0.005,0.005,0.015,0.015,0.015,0.024,0.015,0.0,-0.005,0.0,0.005,-0.005,-0.005,0.0,0.0,0.015,0.024,0.01,0.015,-0.005,0.0,0.0,-0.005,0.0,0.005,0.01,0.015,-0.005,0.0,0.01,0.01,0.0,-0.01,-0.01,0.005,0.01,0.005,-0.005,0.0,0.01,0.01,0.0,0.0,-0.005,-0.015,-0.015,-0.005,0.005,-0.005,0.005,0.0,-0.015,-0.005,0.01,0.0,-0.005,0.0,0.0,0.005,0.0,-0.01,-0.02,0.0,0.0,-0.005,-0.01,-0.005,-0.01,-0.005,-0.02,-0.029,-0.024,-0.02,-0.01,0.0,-0.02,-0.02,-0.02,-0.02,-0.024,-0.024,-0.024,-0.02,-0.02,-0.015,-0.015,-0.01,-0.01,-0.024,-0.015,-0.024,-0.034,-0.024,-0.024,-0.02,-0.015,-0.02,-0.02,-0.024,-0.029,-0.015,-0.015,-0.015,-0.005,-0.01,-0.015,-0.015,JS04714,0
27,-0.015,-0.024,-0.034,-0.034,-0.029,-0.034,-0.02,-0.029,-0.024,-0.02,-0.02,-0.02,-0.024,-0.029,-0.024,-0.024,-0.02,-0.015,-0.02,-0.015,-0.015,-0.015,-0.015,-0.024,-0.024,-0.02,-0.02,-0.01,-0.005,-0.015,-0.005,-0.005,0.0,0.01,0.0,-0.005,-0.005,0.0,0.015,0.005,0.02,0.034,0.029,0.039,0.044,0.054,0.063,0.059,0.049,0.044,0.029,0.029,0.024,0.034,0.044,0.039,0.034,0.039,0.024,0.024,0.024,0.02,0.02,0.0,-0.02,-0.015,-0.024,-0.029,-0.024,-0.029,-0.024,-0.034,-0.029,-0.034,-0.029,-0.029,-0.029,-0.029,-0.029,-0.029,-0.024,-0.024,-0.029,-0.024,-0.034,-0.044,-0.039,-0.034,-0.024,-0.024,-0.024,-0.024,-0.029,-0.039,-0.049,-0.063,-0.073,-0.083,-0.102,-0.117,-0.142,-0.151,-0.137,-0.117,-0.093,-0.049,0.015,0.088,0.176,0.293,0.415,0.532,0.644,0.752,0.834,0.854,0.776,0.615,0.459,0.307,0.21,0.122,0.068,0.02,-0.024,-0.059,-0.093,-0.112,-0.117,-0.112,-0.102,-0.063,-0.049,-0.049,-0.049,-0.044,-0.034,-0.034,-0.039,-0.029,-0.034,-0.029,-0.034,-0.044,-0.039,-0.049,-0.049,-0.034,-0.034,-0.034,-0.024,-0.034,-0.039,-0.039,-0.034,-0.044,-0.054,-0.039,-0.034,-0.039,-0.024,-0.029,-0.039,-0.039,-0.044,-0.044,-0.034,-0.039,-0.034,-0.034,-0.024,-0.02,-0.015,-0.015,-0.029,-0.039,-0.034,-0.039,-0.039,-0.029,-0.029,-0.024,-0.029,-0.024,-0.029,-0.029,-0.029,-0.024,-0.029,-0.029,-0.029,-0.034,-0.034,-0.024,-0.015,-0.015,-0.024,-0.029,-0.029,-0.029,-0.02,-0.029,-0.029,-0.024,-0.034,-0.024,-0.024,-0.024,-0.024,-0.024,-0.015,-0.015,-0.024,-0.02,-0.02,-0.02,-0.015,-0.01,-0.02,-0.01,-0.015,-0.015,-0.02,-0.015,-0.02,-0.02,-0.01,-0.005,-0.005,-0.005,-0.015,-0.02,-0.02,-0.02,-0.015,-0.015,-0.02,-0.02,-0.015,-0.005,-0.005,-0.02,-0.02,-0.015,-0.02,-0.015,-0.02,-0.01,-0.01,-0.01,-0.005,-0.01,-0.024,-0.015,-0.02,-0.02,-0.02,-0.015,0.0,0.0,0.0,0.0,0.0,0.0,0.0,-0.015,-0.01,-0.005,-0.005,0.0,-0.005,-0.005,-0.005,0.0,0.005,0.005,-0.01,-0.01,-0.005,0.01,0.0,-0.015,-0.015,-0.015,-0.015,-0.005,-0.01,0.005,0.015,0.005,0.0,-0.005,-0.01,-0.005,-0.005,0.005,0.005,0.005,0.01,0.01,0.015,JS04714,0
28,-0.01,-0.01,-0.01,-0.01,-0.005,0.0,0.0,0.005,0.0,-0.01,-0.015,-0.015,-0.01,-0.01,-0.01,0.0,0.0,-0.005,-0.005,-0.005,0.0,-0.005,-0.01,-0.005,-0.01,0.005,0.015,0.015,0.024,0.024,0.029,0.044,0.02,0.015,0.015,0.02,0.029,0.029,0.044,0.054,0.044,0.049,0.054,0.063,0.063,0.063,0.063,0.063,0.049,0.049,0.049,0.049,0.044,0.039,0.044,0.054,0.054,0.049,0.039,0.039,0.039,0.024,0.024,0.024,0.0,0.0,0.005,0.005,-0.005,-0.005,-0.005,0.0,0.0,0.005,0.005,0.0,0.005,0.005,0.0,0.0,-0.01,0.0,-0.005,-0.015,-0.01,-0.01,-0.005,0.0,-0.015,-0.01,-0.02,-0.015,-0.02,-0.039,-0.054,-0.054,-0.078,-0.088,-0.117,-0.117,-0.093,-0.078,-0.044,0.01,0.063,0.137,0.224,0.332,0.449,0.561,0.673,0.771,0.839,0.82,0.703,0.542,0.39,0.249,0.156,0.102,0.049,0.02,-0.01,-0.049,-0.078,-0.102,-0.098,-0.088,-0.078,-0.054,-0.029,-0.029,-0.034,-0.034,-0.039,-0.029,-0.024,-0.024,-0.015,-0.015,-0.015,-0.02,-0.015,-0.02,-0.029,-0.02,-0.015,-0.015,-0.015,-0.02,-0.015,-0.024,-0.029,-0.015,-0.015,-0.01,-0.005,-0.01,-0.01,-0.015,-0.02,-0.01,-0.01,-0.005,-0.015,-0.015,-0.005,-0.015,-0.01,0.0,-0.005,-0.02,-0.02,-0.02,-0.02,-0.015,-0.01,-0.005,-0.015,-0.01,0.0,0.0,0.0,-0.01,-0.015,-0.01,-0.015,-0.01,-0.015,-0.01,-0.005,-0.01,-0.01,-0.005,-0.015,-0.01,-0.015,-0.02,-0.02,-0.015,-0.015,-0.005,-0.015,-0.015,-0.01,-0.015,-0.01,-0.02,-0.024,-0.02,-0.015,-0.015,-0.015,-0.01,0.0,-0.01,-0.01,-0.005,-0.015,-0.015,-0.02,-0.029,-0.015,-0.01,-0.01,-0.005,-0.01,-0.01,-0.01,-0.01,-0.015,-0.02,-0.02,-0.015,-0.015,-0.01,-0.015,-0.01,-0.005,0.0,-0.005,-0.015,-0.015,-0.015,-0.02,-0.015,-0.005,-0.01,-0.005,-0.01,-0.02,-0.015,-0.015,-0.01,-0.01,-0.01,-0.01,-0.01,-0.024,-0.029,-0.02,-0.024,-0.024,-0.024,-0.02,-0.02,-0.024,-0.024,-0.024,-0.015,-0.01,-0.015,-0.01,0.005,-0.005,-0.005,-0.02,-0.02,-0.01,-0.015,-0.01,-0.005,0.0,0.005,-0.015,-0.02,-0.01,-0.01,-0.005,-0.005,-0.015,-0.015,-0.02,-0.015,-0.01,-0.015,-0.01,-0.015,-0.02,-0.015,-0.015,JS04714,0
29,-0.024,-0.024,-0.024,-0.015,-0.01,-0.015,-0.015,-0.024,-0.02,-0.005,0.0,-0.005,-0.005,0.0,0.0,0.01,0.005,0.0,-0.005,0.01,0.005,0.005,0.015,0.02,0.02,0.02,0.034,0.044,0.049,0.054,0.063,0.059,0.059,0.044,0.02,0.015,0.024,0.034,0.034,0.039,0.039,0.034,0.02,0.024,0.015,0.01,0.01,-0.005,-0.015,-0.02,-0.024,-0.024,-0.024,-0.024,-0.024,-0.01,0.0,-0.015,-0.02,-0.015,-0.029,-0.029,-0.02,-0.029,-0.039,-0.044,-0.039,-0.029,-0.029,-0.029,-0.039,-0.054,-0.039,-0.034,-0.034,-0.034,-0.044,-0.054,-0.063,-0.073,-0.083,-0.107,-0.132,-0.146,-0.146,-0.132,-0.102,-0.078,-0.024,0.024,0.088,0.185,0.307,0.429,0.537,0.659,0.766,0.839,0.839,0.732,0.566,0.41,0.288,0.185,0.102,0.044,0.0,-0.029,-0.068,-0.093,-0.112,-0.112,-0.102,-0.098,-0.078,-0.059,-0.059,-0.054,-0.049,-0.049,-0.044,-0.039,-0.039,-0.034,-0.044,-0.044,-0.039,-0.034,-0.044,-0.054,-0.054,-0.044,-0.054,-0.049,-0.059,-0.054,-0.054,-0.059,-0.068,-0.063,-0.054,-0.039,-0.039,-0.044,-0.039,-0.049,-0.049,-0.049,-0.049,-0.044,-0.039,-0.029,-0.039,-0.049,-0.044,-0.044,-0.054,-0.049,-0.049,-0.029,-0.029,-0.034,-0.034,-0.044,-0.059,-0.054,-0.054,-0.049,-0.044,-0.049,-0.049,-0.044,-0.049,-0.044,-0.039,-0.039,-0.044,-0.049,-0.039,-0.039,-0.044,-0.034,-0.039,-0.044,-0.039,-0.049,-0.049,-0.054,-0.049,-0.034,-0.034,-0.034,-0.034,-0.039,-0.034,-0.039,-0.039,-0.039,-0.044,-0.039,-0.029,-0.039,-0.034,-0.039,-0.039,-0.029,-0.034,-0.044,-0.034,-0.034,-0.024,-0.024,-0.029,-0.034,-0.039,-0.024,-0.024,-0.039,-0.034,-0.039,-0.029,-0.024,-0.029,-0.034,-0.029,-0.029,-0.029,-0.034,-0.034,-0.034,-0.034,-0.029,-0.029,-0.034,-0.024,-0.024,-0.02,-0.024,-0.029,-0.024,-0.024,-0.024,-0.02,-0.02,-0.015,-0.01,-0.015,-0.015,-0.02,-0.024,-0.02,-0.029,-0.029,-0.024,-0.024,-0.02,-0.024,-0.024,-0.01,-0.01,-0.015,-0.005,-0.005,-0.005,-0.005,-0.01,-0.01,-0.02,-0.01,-0.005,-0.015,-0.01,-0.005,0.0,-0.01,-0.015,-0.02,-0.02,-0.015,0.0,0.005,-0.005,-0.005,-0.015,-0.01,-0.01,0.0,-0.005,-0.005,0.005,0.01,0.0,0.01,0.01,0.005,0.01,0.01,0.0,0.0,0.0,0.01,JS04714,0
30,-0.01,-0.005,-0.01,-0.01,-0.01,-0.015,-0.01,-0.005,-0.005,0.005,-0.01,-0.01,-0.005,-0.01,-0.01,-0.024,-0.024,-0.015,-0.024,-0.01,-0.015,-0.02,-0.005,0.0,-0.01,-0.02,-0.02,-0.01,0.005,0.01,0.005,0.0,0.0,0.01,0.005,0.005,0.01,0.024,0.024,0.024,0.034,0.039,0.039,0.059,0.059,0.054,0.044,0.024,0.02,0.02,0.02,0.015,0.02,0.034,0.044,0.039,0.044,0.039,0.015,0.01,-0.01,-0.02,-0.02,-0.029,-0.024,-0.02,-0.015,-0.024,-0.024,-0.029,-0.034,-0.039,-0.029,-0.029,-0.039,-0.034,-0.029,-0.039,-0.039,-0.044,-0.044,-0.039,-0.039,-0.034,-0.044,-0.039,-0.039,-0.049,-0.039,-0.044,-0.054,-0.059,-0.073,-0.078,-0.093,-0.117,-0.137,-0.156,-0.161,-0.137,-0.107,-0.073,-0.005,0.054,0.122,0.215,0.322,0.444,0.551,0.654,0.756,0.825,0.81,0.678,0.517,0.356,0.215,0.102,0.034,-0.015,-0.044,-0.063,-0.088,-0.117,-0.142,-0.151,-0.137,-0.127,-0.102,-0.083,-0.078,-0.063,-0.073,-0.078,-0.063,-0.059,-0.044,-0.044,-0.039,-0.049,-0.059,-0.044,-0.054,-0.063,-0.059,-0.054,-0.044,-0.039,-0.049,-0.044,-0.044,-0.054,-0.054,-0.054,-0.049,-0.039,-0.049,-0.049,-0.044,-0.049,-0.049,-0.049,-0.044,-0.039,-0.049,-0.039,-0.049,-0.054,-0.049,-0.044,-0.054,-0.049,-0.054,-0.049,-0.054,-0.044,-0.039,-0.039,-0.044,-0.044,-0.049,-0.044,-0.049,-0.049,-0.044,-0.039,-0.044,-0.039,-0.049,-0.049,-0.044,-0.039,-0.039,-0.049,-0.044,-0.034,-0.044,-0.034,-0.039,-0.049,-0.049,-0.054,-0.054,-0.044,-0.044,-0.039,-0.044,-0.039,-0.039,-0.044,-0.044,-0.039,-0.044,-0.034,-0.039,-0.034,-0.039,-0.049,-0.039,-0.029,-0.039,-0.039,-0.034,-0.034,-0.024,-0.02,-0.02,-0.029,-0.034,-0.024,-0.039,-0.044,-0.044,-0.049,-0.044,-0.034,-0.039,-0.034,-0.039,-0.039,-0.034,-0.024,-0.024,-0.029,-0.029,-0.034,-0.039,-0.034,-0.039,-0.044,-0.029,-0.024,-0.029,-0.02,-0.024,-0.029,-0.029,-0.024,-0.029,-0.034,-0.039,-0.029,-0.024,-0.029,-0.024,-0.01,-0.005,-0.01,-0.024,-0.029,-0.034,-0.029,-0.024,-0.024,-0.01,-0.015,-0.02,-0.024,-0.029,-0.024,-0.02,-0.024,-0.02,-0.02,-0.01,-0.005,-0.015,-0.01,-0.005,-0.01,-0.005,-0.005,-0.01,-0.015,-0.015,-0.005,-0.01,-0.01,0.0,0.0,-0.01,JS04714,0
31,0.005,0.005,-0.005,0.0,0.0,0.01,0.005,0.005,0.005,0.0,0.01,0.01,0.0,-0.005,-0.005,-0.01,0.0,-0.005,0.005,0.005,0.0,0.01,0.0,0.0,0.01,0.005,0.005,0.005,0.01,0.015,0.005,0.015,0.015,0.005,0.015,0.015,0.01,0.02,0.02,0.02,0.029,0.029,0.034,0.034,0.039,0.044,0.034,0.049,0.059,0.054,0.063,0.068,0.063,0.068,0.054,0.044,0.034,0.029,0.044,0.044,0.049,0.059,0.049,0.049,0.049,0.039,0.034,0.034,0.024,0.005,-0.01,-0.005,0.0,-0.005,0.005,0.0,-0.01,-0.005,0.0,0.0,-0.005,-0.005,-0.01,-0.015,-0.015,-0.005,-0.015,-0.01,0.0,0.0,-0.01,-0.02,-0.024,-0.02,-0.024,-0.015,-0.024,-0.02,-0.024,-0.039,-0.054,-0.068,-0.102,-0.107,-0.122,-0.122,-0.107,-0.088,-0.059,-0.005,0.049,0.117,0.205,0.322,0.454,0.561,0.664,0.766,0.825,0.834,0.742,0.59,0.449,0.322,0.224,0.142,0.083,0.044,0.005,-0.02,-0.049,-0.063,-0.063,-0.054,-0.054,-0.029,-0.02,-0.02,-0.024,-0.034,-0.034,-0.02,-0.02,-0.005,-0.01,-0.015,-0.02,-0.024,-0.02,-0.02,-0.024,-0.01,-0.015,-0.015,-0.015,-0.015,-0.024,-0.024,-0.034,-0.029,-0.024,-0.02,-0.015,-0.015,-0.01,-0.01,-0.015,-0.015,-0.024,-0.02,-0.02,-0.02,-0.015,-0.015,-0.02,-0.02,-0.024,-0.02,-0.015,-0.015,-0.015,-0.015,-0.015,-0.01,-0.015,-0.02,-0.024,-0.024,-0.015,-0.01,-0.01,0.0,-0.01,-0.01,-0.02,-0.02,-0.02,-0.02,-0.02,-0.02,-0.02,-0.015,-0.01,-0.015,-0.01,-0.015,-0.02,-0.015,-0.024,-0.024,-0.02,-0.01,-0.01,-0.02,-0.02,-0.015,-0.024,-0.02,-0.015,-0.024,-0.024,-0.015,-0.02,-0.01,-0.015,-0.015,-0.01,-0.015,-0.015,-0.02,-0.01,-0.01,-0.015,-0.005,-0.01,-0.015,-0.01,-0.01,-0.01,-0.01,-0.02,-0.01,-0.015,-0.015,-0.01,-0.015,-0.015,-0.01,-0.015,-0.01,-0.01,-0.01,-0.01,-0.01,-0.01,-0.01,-0.015,0.0,-0.005,-0.01,0.0,0.005,0.005,0.005,-0.01,-0.015,-0.02,-0.01,-0.005,-0.005,-0.005,0.0,-0.005,0.005,-0.005,-0.01,-0.005,-0.005,-0.01,-0.01,-0.01,0.0,-0.005,-0.005,-0.005,-0.015,-0.015,-0.015,-0.024,-0.02,-0.02,-0.015,-0.005,-0.005,0.0,0.0,-0.01,-0.005,-0.01,-0.005,0.005,JS04714,0
32,-0.075,-0.074,-0.08,-0.092,-0.1,-0.109,-0.108,-0.104,-0.105,-0.1,-0.089,-0.072,-0.061,-0.043,-0.02,-0.034,-0.018,-0.003,-0.012,-0.015,-0.014,-0.021,-0.025,-0.026,-0.03,-0.022,-0.016,-0.015,-0.015,-0.015,-0.014,-0.019,-0.002,0.016,0.0,-0.012,-0.026,-0.028,-0.017,-0.01,-0.006,-0.002,0.001,-0.001,-0.005,-0.004,-0.013,-0.01,0.002,0.0,0.0,0.0,0.002,0.006,0.005,0.0,0.005,-0.019,-0.054,-0.045,-0.039,-0.044,-0.044,-0.04,-0.04,-0.036,-0.031,-0.03,-0.03,-0.025,-0.021,-0.052,-0.063,-0.031,-0.02,-0.071,-0.113,-0.118,-0.108,-0.105,-0.101,-0.097,-0.093,-0.089,-0.085,-0.081,-0.076,-0.075,-0.065,-0.055,-0.096,-0.145,-0.12,-0.079,-0.12,-0.143,-0.115,-0.13,-0.167,-0.135,-0.107,-0.074,-0.037,-0.009,0.025,0.088,0.151,0.225,0.293,0.335,0.406,0.438,0.426,0.388,0.36,0.401,0.372,0.289,0.219,0.17,0.149,0.094,0.034,0.006,-0.005,-0.026,-0.069,-0.069,-0.035,-0.045,-0.076,-0.079,-0.076,-0.081,-0.08,-0.08,-0.08,-0.082,-0.085,-0.085,-0.085,-0.088,-0.09,-0.09,-0.09,-0.09,-0.093,-0.096,-0.095,-0.095,-0.097,-0.082,-0.075,-0.081,-0.08,-0.08,-0.08,-0.08,-0.079,-0.075,-0.075,-0.075,-0.075,-0.074,-0.07,-0.07,-0.071,-0.068,-0.065,-0.065,-0.065,-0.065,-0.063,-0.059,-0.06,-0.061,-0.057,-0.086,-0.125,-0.115,-0.081,-0.071,-0.078,-0.08,-0.08,-0.08,-0.079,-0.082,-0.084,-0.08,-0.084,-0.086,-0.085,-0.085,-0.085,-0.09,-0.087,-0.085,-0.085,-0.08,-0.078,-0.092,-0.103,-0.107,-0.105,-0.068,-0.053,-0.055,-0.048,-0.05,-0.084,-0.091,-0.082,-0.08,-0.075,-0.067,-0.063,-0.055,-0.051,-0.05,-0.02,-0.016,-0.02,-0.014,-0.015,-0.02,-0.017,-0.014,-0.016,-0.02,-0.022,-0.006,0.015,0.028,0.035,0.042,0.059,0.064,0.052,0.045,0.054,0.05,0.044,0.045,0.04,0.037,0.057,0.077,0.07,0.05,0.056,0.071,0.091,0.107,0.095,0.058,0.071,0.086,0.072,0.07,0.067,0.059,0.053,0.048,0.045,0.067,0.066,0.057,0.053,0.045,0.042,0.031,0.022,0.02,0.02,0.02,0.02,0.019,0.022,0.02,-0.021,-0.037,-0.034,-0.035,-0.035,-0.038,-0.048,-0.063,-0.079,-0.095,-0.115,-0.096,-0.056,-0.03,-0.015,0.005,-0.014,-0.054,-0.071,-0.06,-0.051,HR05765,0
33,-0.07,-0.056,-0.063,-0.073,-0.076,-0.085,-0.101,-0.116,-0.122,-0.119,-0.11,-0.098,-0.089,-0.079,-0.068,-0.06,-0.05,-0.059,-0.046,0.003,0.03,0.006,-0.001,0.009,0.01,0.01,0.013,0.021,0.01,-0.016,-0.03,-0.038,-0.049,-0.043,-0.019,0.0,0.018,0.013,-0.015,-0.02,0.01,0.006,0.01,-0.002,-0.039,-0.065,-0.072,-0.059,-0.043,-0.032,-0.02,-0.004,0.009,0.023,0.029,0.0,-0.065,-0.069,-0.034,-0.019,-0.025,-0.029,-0.033,-0.036,-0.033,-0.035,-0.065,-0.073,-0.086,-0.107,-0.1,-0.096,-0.088,-0.085,-0.084,-0.075,-0.071,-0.064,-0.058,-0.054,-0.045,-0.036,-0.033,-0.025,-0.029,-0.065,-0.104,-0.116,-0.115,-0.115,-0.115,-0.119,-0.086,-0.07,-0.08,-0.075,-0.106,-0.132,-0.131,-0.116,-0.1,-0.08,-0.063,-0.046,-0.024,0.0,0.022,0.063,0.102,0.162,0.275,0.37,0.44,0.45,0.4,0.345,0.333,0.346,0.362,0.354,0.295,0.199,0.148,0.132,0.098,0.045,0.027,0.014,-0.002,-0.013,-0.03,-0.057,-0.05,-0.035,-0.035,-0.035,-0.035,-0.035,-0.034,-0.037,-0.045,-0.048,-0.062,-0.074,-0.075,-0.075,-0.075,-0.078,-0.08,-0.081,-0.08,-0.064,-0.05,-0.042,-0.04,-0.04,-0.04,-0.04,-0.04,-0.04,-0.04,-0.048,-0.054,-0.057,-0.061,-0.065,-0.069,-0.071,-0.068,-0.064,-0.06,-0.056,-0.052,-0.048,-0.045,-0.045,-0.045,-0.045,-0.047,-0.051,-0.055,-0.059,-0.063,-0.067,-0.072,-0.07,-0.051,-0.061,-0.025,-0.006,-0.09,-0.069,-0.026,-0.041,-0.073,-0.065,-0.069,-0.07,-0.072,-0.075,-0.075,-0.079,-0.081,-0.079,-0.081,-0.085,-0.086,-0.077,-0.048,-0.059,-0.12,-0.071,-0.032,-0.031,-0.036,-0.04,-0.04,-0.043,-0.046,-0.045,-0.045,-0.049,-0.05,-0.051,-0.056,-0.055,-0.04,-0.022,-0.011,-0.011,-0.015,-0.019,-0.022,-0.03,-0.016,0.03,0.047,0.064,0.066,0.054,0.045,0.012,0.035,0.06,0.047,0.045,0.065,0.082,0.101,0.116,0.11,0.103,0.089,0.088,0.103,0.11,0.106,0.104,0.106,0.104,0.1,0.1,0.101,0.098,0.086,0.075,0.079,0.081,0.077,0.076,0.08,0.076,0.074,0.075,0.075,0.075,0.067,0.058,0.053,0.049,0.045,0.041,0.038,0.03,0.017,0.01,0.007,-0.002,-0.004,0.0,0.0,0.004,0.006,0.002,-0.008,-0.015,-0.008,0.004,0.0,-0.012,-0.015,HR05765,0
34,-0.09,-0.038,0.028,0.062,0.053,0.02,0.006,-0.032,-0.051,-0.011,0.035,0.011,-0.025,-0.024,-0.009,-0.015,-0.015,-0.018,-0.02,-0.021,-0.025,-0.025,-0.028,-0.03,-0.03,-0.035,-0.035,0.002,0.024,0.013,0.01,0.006,0.004,0.005,0.004,0.0,-0.004,-0.009,-0.007,0.002,0.01,0.014,0.021,0.029,0.038,0.04,0.021,0.039,0.063,0.083,0.115,0.094,0.064,0.051,0.05,0.045,0.033,0.024,0.015,0.002,-0.005,-0.001,0.0,0.002,0.005,0.005,0.009,0.014,0.014,-0.002,-0.03,-0.036,-0.035,-0.035,-0.035,-0.035,-0.035,-0.035,-0.036,-0.034,-0.035,-0.06,-0.098,-0.094,-0.049,-0.02,-0.023,-0.029,-0.032,-0.036,-0.04,-0.043,-0.052,-0.023,-0.006,-0.08,-0.149,-0.14,-0.09,-0.071,-0.085,-0.058,-0.033,0.0,0.027,0.03,0.07,0.101,0.152,0.237,0.32,0.389,0.483,0.532,0.487,0.415,0.4,0.39,0.369,0.306,0.21,0.206,0.169,0.091,0.053,0.06,0.019,-0.033,-0.057,-0.053,-0.04,-0.026,-0.03,-0.038,-0.041,-0.045,-0.049,-0.051,-0.047,-0.055,-0.065,-0.026,-0.034,-0.057,-0.054,-0.055,-0.055,-0.055,-0.055,-0.055,-0.055,-0.059,-0.06,-0.06,-0.06,-0.06,-0.06,-0.06,-0.06,-0.061,-0.065,-0.065,-0.065,-0.065,-0.065,-0.065,-0.065,-0.065,-0.066,-0.064,-0.07,-0.104,-0.111,-0.1,-0.094,-0.09,-0.09,-0.087,-0.086,-0.091,-0.095,-0.096,-0.088,-0.069,-0.053,-0.055,-0.059,-0.064,-0.065,-0.067,-0.065,-0.032,-0.022,-0.026,-0.025,-0.025,-0.025,-0.028,-0.031,-0.03,-0.03,-0.03,-0.033,-0.036,-0.035,-0.035,-0.037,-0.021,-0.036,-0.068,-0.055,-0.046,-0.039,-0.033,-0.028,-0.02,-0.016,-0.011,-0.01,-0.008,0.0,0.0,0.003,0.005,0.015,0.035,0.028,0.021,0.019,0.013,0.005,0.001,-0.002,-0.01,-0.004,0.04,0.084,0.09,0.084,0.085,0.08,0.08,0.08,0.08,0.081,0.075,0.057,0.098,0.118,0.09,0.08,0.058,0.028,0.052,0.094,0.07,0.045,0.097,0.129,0.105,0.095,0.083,0.073,0.067,0.066,0.065,0.04,0.035,0.043,0.045,0.045,0.049,0.05,0.051,0.057,0.065,0.065,0.068,0.069,0.072,0.075,0.037,-0.005,-0.016,-0.008,-0.005,-0.001,0.003,0.007,0.012,0.015,-0.001,-0.014,-0.027,-0.035,-0.045,-0.092,-0.099,-0.084,-0.079,-0.07,HR05765,0
35,-0.09,-0.088,-0.066,-0.051,-0.048,-0.04,-0.042,-0.026,-0.039,-0.067,-0.055,-0.055,-0.052,-0.05,-0.049,-0.045,-0.051,-0.038,-0.013,-0.006,-0.005,0.029,-0.001,0.003,0.059,0.065,0.065,0.065,0.065,0.065,0.06,0.037,0.011,0.007,0.017,0.02,0.027,0.038,0.039,0.035,0.035,0.027,0.024,0.027,0.031,0.03,0.018,0.008,0.003,-0.001,-0.005,-0.009,-0.013,0.002,0.04,0.06,0.019,0.003,0.003,-0.007,-0.01,-0.017,-0.03,-0.021,0.006,0.02,0.021,0.019,0.021,0.018,0.005,0.0,0.003,-0.011,-0.042,-0.06,-0.056,-0.057,-0.061,-0.06,-0.06,-0.06,-0.06,-0.06,-0.061,-0.065,-0.066,-0.061,-0.061,-0.066,-0.065,-0.065,-0.065,-0.065,-0.065,-0.06,-0.044,-0.033,-0.075,-0.126,-0.115,-0.11,-0.107,-0.106,-0.094,-0.06,-0.034,0.045,0.104,0.113,0.17,0.319,0.394,0.438,0.514,0.555,0.5,0.427,0.413,0.459,0.47,0.355,0.271,0.211,0.138,0.09,0.067,0.034,0.03,0.037,0.015,0.039,0.043,-0.004,-0.044,-0.035,-0.035,-0.032,-0.032,-0.035,-0.03,-0.03,-0.027,-0.024,-0.025,-0.025,-0.025,-0.023,-0.016,-0.027,-0.06,-0.057,-0.057,-0.061,-0.06,-0.06,-0.06,-0.061,-0.072,-0.062,-0.02,-0.026,-0.032,-0.031,-0.036,-0.04,-0.044,-0.049,-0.05,-0.051,-0.05,-0.03,-0.022,-0.045,-0.068,-0.065,-0.065,-0.064,-0.068,-0.059,-0.03,-0.041,-0.049,-0.053,-0.062,-0.07,-0.078,-0.084,-0.084,-0.069,-0.045,-0.055,-0.069,-0.052,-0.027,-0.025,-0.02,-0.028,-0.04,-0.047,-0.055,-0.067,-0.075,-0.087,-0.087,-0.05,0.001,0.017,-0.017,-0.047,-0.03,-0.021,-0.014,-0.006,0.003,0.015,0.02,0.017,0.015,0.015,0.01,0.003,-0.013,-0.04,-0.055,-0.04,-0.035,-0.03,-0.005,0.018,0.015,0.015,0.015,0.015,0.015,0.015,0.015,0.015,0.015,0.015,0.015,0.014,0.024,0.049,0.058,0.045,0.065,0.073,0.067,0.074,0.085,0.067,0.079,0.09,0.077,0.07,0.065,0.067,0.073,0.075,0.08,0.101,0.106,0.108,0.09,0.04,0.038,0.041,0.04,0.038,0.025,0.009,-0.004,-0.017,-0.017,0.0,-0.002,-0.012,-0.016,-0.015,-0.015,-0.019,-0.018,-0.011,-0.012,-0.01,0.025,0.025,0.011,0.009,0.0,-0.02,-0.036,-0.056,-0.062,-0.02,0.04,0.022,-0.04,-0.064,-0.045,HR05765,0
36,-0.058,-0.05,-0.05,-0.048,-0.043,-0.039,-0.035,-0.035,-0.032,-0.028,-0.023,-0.02,-0.037,-0.039,-0.065,-0.088,-0.045,-0.008,-0.009,-0.018,-0.021,-0.03,-0.039,-0.043,-0.049,-0.047,-0.02,0.011,0.014,0.009,0.01,0.005,0.001,-0.004,-0.005,-0.006,-0.01,-0.011,-0.004,0.004,0.013,0.025,0.037,0.049,0.059,0.067,0.08,0.088,0.06,0.024,-0.02,-0.075,-0.064,-0.031,-0.013,-0.002,0.015,0.028,0.031,0.029,0.031,0.025,-0.007,-0.027,-0.034,-0.042,-0.05,-0.056,-0.08,-0.09,-0.086,-0.095,-0.095,-0.099,-0.111,-0.105,-0.07,-0.039,-0.033,-0.036,-0.034,-0.04,-0.075,-0.077,-0.068,-0.07,-0.065,-0.056,-0.054,-0.056,-0.044,-0.04,-0.111,-0.13,-0.116,-0.114,-0.105,-0.1,-0.104,-0.117,-0.126,-0.12,-0.112,-0.107,-0.102,-0.091,-0.075,-0.061,-0.03,0.01,0.086,0.195,0.235,0.302,0.394,0.447,0.435,0.382,0.312,0.288,0.329,0.355,0.275,0.222,0.16,0.062,0.005,-0.003,-0.054,-0.086,-0.09,-0.115,-0.089,-0.063,-0.062,-0.072,-0.08,-0.087,-0.099,-0.094,-0.076,-0.065,-0.065,-0.065,-0.065,-0.064,-0.06,-0.06,-0.057,-0.071,-0.094,-0.095,-0.096,-0.124,-0.132,-0.111,-0.105,-0.094,-0.08,-0.072,-0.069,-0.065,-0.06,-0.061,-0.055,-0.07,-0.12,-0.118,-0.114,-0.114,-0.11,-0.11,-0.106,-0.105,-0.103,-0.1,-0.1,-0.096,-0.092,-0.088,-0.085,-0.085,-0.081,-0.077,-0.073,-0.069,-0.07,-0.074,-0.075,-0.075,-0.075,-0.075,-0.075,-0.074,-0.078,-0.087,-0.095,-0.102,-0.115,-0.102,-0.059,-0.035,-0.059,-0.071,-0.071,-0.077,-0.085,-0.093,-0.064,-0.017,0.008,0.01,0.018,-0.012,-0.021,-0.032,-0.1,-0.1,-0.089,-0.093,-0.103,-0.105,-0.082,-0.057,-0.047,-0.044,-0.04,-0.039,-0.041,-0.021,0.003,-0.015,-0.058,-0.068,-0.064,-0.064,-0.055,-0.044,-0.022,0.015,0.025,-0.01,-0.004,0.004,0.009,0.015,0.015,0.033,0.029,0.014,0.019,0.045,0.073,0.066,0.046,0.03,0.03,0.081,0.092,0.084,0.083,0.065,0.049,0.033,0.017,0.01,0.02,0.028,0.035,0.046,0.047,0.02,-0.011,-0.013,-0.012,-0.022,-0.025,-0.034,-0.035,-0.038,-0.047,-0.05,-0.042,-0.036,-0.036,-0.033,-0.025,-0.028,-0.036,-0.044,-0.051,-0.06,-0.085,-0.13,-0.128,-0.078,-0.045,-0.037,-0.026,-0.017,-0.006,HR05765,0
37,0.01,0.007,-0.005,0.005,0.028,0.025,0.018,0.038,0.038,0.017,0.02,0.021,0.017,0.014,0.015,0.015,0.007,-0.001,-0.01,-0.024,-0.025,0.012,0.029,0.032,0.035,0.035,0.036,0.032,0.077,0.112,0.055,0.022,-0.047,-0.075,-0.043,-0.03,-0.018,-0.01,0.003,0.017,0.015,0.015,0.012,0.011,0.016,0.015,0.01,0.013,0.014,0.009,0.01,0.014,-0.019,-0.036,-0.023,-0.025,-0.021,-0.019,-0.022,-0.007,0.015,-0.039,-0.084,-0.07,-0.015,0.025,0.009,0.013,0.05,0.043,-0.025,-0.026,-0.012,-0.04,-0.065,-0.035,-0.013,-0.001,0.027,0.044,0.0,-0.068,-0.084,-0.019,0.023,-0.025,-0.026,-0.037,-0.076,-0.102,-0.095,-0.095,-0.088,-0.085,-0.073,-0.01,0.091,0.17,0.216,0.274,0.375,0.484,0.54,0.523,0.456,0.395,0.403,0.425,0.429,0.388,0.305,0.25,0.181,0.134,0.114,0.09,0.085,0.016,0.0,0.037,0.01,0.012,0.022,0.029,0.037,0.045,0.048,0.058,0.054,0.018,-0.03,-0.041,-0.04,-0.04,-0.04,-0.04,-0.04,-0.043,-0.045,-0.045,-0.045,-0.044,-0.051,-0.056,-0.055,-0.055,-0.055,-0.056,-0.053,-0.049,-0.05,-0.051,-0.048,-0.058,-0.07,-0.06,-0.055,-0.056,-0.034,-0.007,-0.01,-0.01,-0.01,-0.01,-0.01,-0.01,-0.01,-0.01,-0.01,-0.01,-0.01,-0.007,-0.029,-0.043,-0.039,-0.04,-0.04,-0.04,-0.04,-0.04,-0.04,-0.04,-0.04,-0.04,-0.041,-0.04,-0.034,-0.076,-0.062,-0.011,-0.04,-0.063,-0.063,-0.059,-0.061,-0.06,-0.036,-0.016,-0.005,0.002,0.005,0.007,0.026,0.021,0.005,0.01,-0.032,-0.039,-0.024,-0.018,-0.01,-0.002,0.003,0.007,0.011,0.015,0.02,0.018,0.026,0.017,-0.02,0.001,0.032,0.044,0.046,0.05,0.053,0.062,0.049,0.036,0.065,0.093,0.083,0.045,0.034,0.085,0.138,0.146,0.137,0.134,0.13,0.122,0.116,0.114,0.108,0.1,0.097,0.082,0.076,0.079,0.07,0.065,0.066,0.062,0.053,0.05,0.05,0.048,0.026,0.048,0.125,0.074,0.025,0.019,0.021,0.025,0.025,0.029,0.028,0.026,0.03,0.019,0.006,-0.008,-0.013,0.005,0.01,0.012,0.019,0.026,0.03,0.037,0.047,0.034,-0.006,-0.03,-0.001,0.037,0.041,0.002,-0.04,-0.028,-0.001,-0.011,-0.032,-0.025,-0.029,-0.031,-0.03,-0.03,-0.03,HR05765,0
38,-0.022,-0.022,-0.023,-0.013,-0.01,-0.006,-0.003,0.006,0.017,0.025,0.04,0.059,0.065,0.058,0.05,0.043,0.029,0.041,0.043,-0.01,-0.029,-0.035,-0.06,-0.037,0.05,0.024,0.022,0.056,0.071,0.065,0.057,0.052,0.048,0.045,0.045,0.043,0.023,0.016,0.027,0.03,0.029,0.035,0.044,0.044,0.045,0.064,0.044,-0.004,-0.024,-0.005,-0.007,-0.016,0.007,0.031,0.015,0.01,0.005,-0.004,-0.012,-0.02,-0.03,-0.025,-0.018,-0.013,0.0,0.004,0.01,0.02,0.025,0.02,0.021,0.01,0.006,-0.009,-0.05,-0.048,-0.043,-0.048,-0.05,-0.05,-0.054,-0.056,-0.053,-0.049,-0.045,-0.036,-0.035,-0.032,-0.023,-0.025,-0.033,-0.002,0.034,0.03,0.0,-0.013,-0.028,-0.07,-0.102,-0.09,-0.09,-0.085,-0.077,-0.075,-0.065,-0.019,0.041,0.131,0.25,0.35,0.408,0.489,0.523,0.483,0.435,0.396,0.381,0.346,0.276,0.205,0.157,0.173,0.148,0.087,0.085,0.055,0.022,-0.001,-0.019,-0.04,-0.067,-0.064,-0.048,-0.037,-0.03,-0.034,-0.033,-0.027,-0.025,-0.025,-0.021,-0.017,-0.013,-0.019,-0.045,-0.066,-0.078,-0.097,-0.11,-0.095,-0.083,-0.07,-0.062,-0.059,-0.055,-0.055,-0.053,-0.046,-0.057,-0.09,-0.087,-0.085,-0.081,-0.075,-0.08,-0.084,-0.085,-0.084,-0.086,-0.09,-0.09,-0.093,-0.097,-0.101,-0.095,-0.068,-0.072,-0.082,-0.08,-0.085,-0.09,-0.088,-0.096,-0.088,-0.045,-0.034,-0.035,-0.035,-0.035,-0.035,-0.035,-0.035,-0.035,-0.035,-0.035,-0.035,-0.037,-0.028,-0.03,-0.065,-0.072,-0.059,-0.042,-0.035,-0.055,-0.096,-0.051,-0.013,-0.027,-0.025,-0.026,-0.021,-0.041,-0.075,-0.08,-0.083,-0.091,-0.098,-0.099,-0.095,-0.096,-0.089,-0.083,-0.078,-0.07,-0.066,-0.06,-0.049,-0.029,-0.005,-0.001,0.007,0.009,0.032,0.085,0.069,0.04,0.038,0.063,0.08,0.043,0.065,0.086,0.058,0.05,0.074,0.06,0.086,0.134,0.115,0.111,0.102,0.091,0.09,0.09,0.092,0.107,0.103,0.054,-0.015,-0.042,-0.019,0.017,0.038,0.04,0.04,0.037,0.034,0.035,0.035,0.035,0.036,0.03,0.018,0.01,-0.002,-0.015,-0.025,-0.04,-0.045,0.001,0.009,-0.004,-0.007,-0.015,-0.014,-0.022,-0.023,-0.039,-0.085,-0.085,-0.065,-0.045,-0.034,-0.04,-0.044,-0.047,-0.055,-0.05,-0.025,-0.028,HR05765,0
39,-0.046,-0.05,-0.046,-0.048,-0.049,-0.054,-0.075,-0.075,-0.08,-0.089,-0.097,-0.105,-0.101,-0.097,-0.092,-0.09,-0.08,-0.035,-0.011,-0.009,-0.003,0.005,0.005,0.01,0.02,0.026,0.025,0.014,0.0,-0.009,-0.026,-0.05,-0.057,-0.075,-0.04,0.016,0.005,0.005,0.0,-0.008,-0.011,-0.02,-0.029,0.009,0.036,0.029,0.03,0.034,0.036,0.034,0.036,0.04,0.033,0.024,0.017,0.007,0.0,0.007,-0.014,-0.025,-0.021,-0.02,0.025,0.043,0.039,0.04,0.04,0.039,0.046,0.019,-0.046,-0.09,-0.084,-0.072,-0.068,-0.063,-0.055,-0.047,-0.041,-0.026,-0.024,-0.07,-0.122,-0.101,-0.042,-0.012,-0.02,-0.025,-0.024,-0.028,-0.037,-0.04,-0.04,-0.04,-0.04,-0.041,-0.045,-0.045,-0.047,-0.053,-0.046,-0.025,-0.022,-0.046,-0.101,-0.127,-0.07,-0.015,-0.05,-0.062,-0.014,0.02,0.06,0.067,0.136,0.253,0.31,0.379,0.463,0.511,0.488,0.42,0.38,0.397,0.395,0.347,0.285,0.198,0.149,0.131,0.081,0.005,0.008,0.026,0.003,-0.029,-0.03,-0.041,-0.056,-0.042,-0.017,-0.02,-0.016,-0.012,-0.006,0.002,0.01,0.016,-0.031,-0.059,-0.049,-0.055,-0.051,-0.049,-0.053,-0.054,-0.05,-0.05,-0.045,-0.037,-0.035,-0.025,0.001,-0.03,-0.053,-0.037,-0.03,-0.022,-0.017,-0.009,0.02,0.04,-0.013,-0.035,-0.026,-0.026,-0.03,-0.03,-0.03,-0.028,-0.024,-0.02,-0.016,-0.014,-0.017,-0.02,-0.02,-0.024,-0.028,-0.031,-0.029,-0.035,-0.065,-0.067,-0.057,-0.054,-0.045,-0.036,-0.032,-0.026,-0.018,-0.015,-0.019,-0.02,-0.022,-0.025,-0.02,-0.015,0.013,0.026,0.019,0.025,0.027,0.016,0.006,0.005,-0.005,-0.045,-0.036,0.005,0.019,0.0,-0.001,0.001,0.0,0.0,0.0,-0.006,0.001,-0.026,-0.045,0.015,0.06,0.071,0.07,0.07,0.075,0.084,0.009,-0.038,-0.016,-0.01,0.002,0.012,0.019,0.026,0.03,0.033,0.041,0.046,0.053,0.06,0.034,0.003,0.013,0.063,0.105,0.109,0.095,0.138,0.188,0.155,0.13,0.107,0.085,0.063,0.035,0.028,0.045,0.062,0.065,0.06,0.056,0.051,0.05,0.049,0.035,0.016,0.061,0.086,0.059,0.045,0.03,0.012,0.017,0.032,0.03,0.029,0.033,0.035,0.036,0.04,0.042,0.027,0.003,-0.012,-0.015,-0.015,-0.015,-0.014,-0.017,HR05765,0
40,-0.007,0.017,0.035,0.034,0.044,0.052,0.049,0.045,0.045,0.045,0.046,0.044,0.04,0.044,0.043,0.037,0.036,0.04,0.036,0.035,0.035,0.035,0.035,0.027,0.022,0.017,0.007,0.0,0.003,0.011,0.019,0.035,0.04,-0.01,-0.021,-0.002,0.006,0.01,0.017,0.03,0.005,-0.009,0.05,0.083,0.085,0.087,0.08,0.045,0.018,0.019,0.043,0.027,-0.04,-0.036,-0.021,-0.02,-0.02,-0.02,-0.012,-0.003,0.001,-0.01,-0.025,0.004,0.046,0.045,-0.031,-0.11,-0.075,-0.131,-0.14,-0.044,0.0,0.008,0.02,0.008,-0.02,-0.03,-0.055,-0.097,-0.077,-0.022,-0.04,-0.093,-0.061,-0.048,-0.095,-0.105,-0.086,-0.065,-0.059,-0.032,0.045,0.118,0.153,0.2,0.291,0.4,0.489,0.533,0.539,0.491,0.405,0.389,0.417,0.367,0.239,0.15,0.117,0.048,0.035,0.047,-0.02,-0.033,-0.056,-0.059,-0.055,-0.09,-0.088,-0.085,-0.082,-0.074,-0.075,-0.071,-0.067,-0.063,-0.059,-0.055,-0.047,-0.042,-0.036,-0.029,-0.025,-0.026,-0.052,-0.07,-0.098,-0.15,-0.108,-0.047,-0.041,-0.062,-0.055,-0.059,-0.058,-0.054,-0.055,-0.055,-0.05,-0.053,-0.053,-0.05,-0.05,-0.044,-0.096,-0.135,-0.129,-0.135,-0.136,-0.13,-0.12,-0.105,-0.085,-0.081,-0.074,-0.068,-0.064,-0.055,-0.047,-0.041,-0.041,-0.047,-0.055,-0.06,-0.06,-0.06,-0.06,-0.06,-0.06,-0.061,-0.057,-0.056,-0.06,-0.052,-0.05,-0.048,-0.036,-0.035,-0.072,-0.084,-0.063,-0.032,-0.005,0.002,0.016,-0.015,-0.041,-0.01,-0.066,-0.09,-0.066,-0.049,-0.055,-0.056,-0.054,-0.056,-0.053,-0.04,-0.028,-0.016,-0.004,0.008,0.025,0.045,-0.004,-0.033,-0.011,-0.005,-0.001,0.002,0.009,0.016,0.02,0.029,0.026,0.031,0.058,0.075,0.044,-0.008,0.021,0.108,0.125,0.062,0.011,-0.004,-0.006,-0.01,0.003,0.036,0.023,0.031,0.125,0.121,0.112,0.097,0.054,0.02,0.01,0.017,0.049,0.061,0.025,0.022,0.03,0.028,0.024,0.025,0.03,0.028,0.023,0.018,0.01,0.006,0.0,-0.01,-0.007,0.015,0.033,0.031,0.02,0.014,0.01,0.002,-0.003,-0.01,-0.014,-0.015,-0.042,-0.03,0.009,0.015,-0.035,-0.09,-0.084,-0.064,-0.047,0.005,0.054,0.059,0.042,0.026,0.01,-0.005,-0.026,-0.022,-0.002,0.005,0.022,-0.043,-0.09,HR05765,0
41,-0.024,-0.028,-0.031,-0.047,-0.075,-0.063,-0.03,-0.003,0.023,0.045,0.03,0.015,-0.012,-0.037,-0.03,-0.03,-0.027,-0.026,-0.031,-0.035,-0.045,-0.033,-0.008,-0.002,-0.015,-0.001,0.021,0.022,0.006,-0.01,-0.029,-0.053,-0.058,-0.049,-0.05,-0.042,-0.036,-0.033,-0.029,-0.025,-0.036,-0.084,-0.092,-0.042,-0.015,-0.043,-0.057,-0.053,-0.067,-0.095,-0.089,-0.08,-0.081,-0.078,-0.07,-0.067,-0.055,-0.082,-0.1,-0.05,-0.051,-0.06,-0.059,-0.061,-0.065,-0.068,-0.076,-0.066,-0.056,-0.09,-0.141,-0.12,-0.08,-0.094,-0.135,-0.136,-0.142,-0.123,-0.064,-0.025,-0.039,0.02,0.112,0.165,0.215,0.31,0.361,0.412,0.459,0.41,0.301,0.294,0.356,0.369,0.3,0.224,0.213,0.171,0.08,0.03,0.006,-0.018,-0.024,-0.012,-0.005,-0.009,-0.015,-0.058,-0.097,-0.075,-0.062,-0.049,-0.032,-0.025,-0.035,-0.039,-0.013,0.002,-0.015,-0.035,-0.044,-0.048,-0.054,-0.062,-0.065,-0.066,-0.062,-0.06,-0.059,-0.055,-0.055,-0.055,-0.055,-0.055,-0.05,-0.038,-0.026,-0.013,0.005,0.01,-0.026,-0.082,-0.102,-0.087,-0.085,-0.081,-0.076,-0.077,-0.088,-0.09,-0.072,-0.075,-0.081,-0.081,-0.08,-0.039,0.014,0.016,-0.005,0.0,-0.045,-0.066,-0.067,-0.07,-0.065,-0.061,-0.058,-0.052,-0.061,-0.085,-0.07,-0.056,-0.041,-0.02,-0.01,-0.013,-0.02,-0.031,-0.025,-0.005,-0.033,-0.044,-0.038,-0.041,-0.045,-0.045,-0.045,-0.043,-0.039,-0.04,-0.041,-0.036,-0.037,-0.04,-0.035,-0.03,-0.03,-0.029,-0.024,-0.02,-0.021,-0.012,-0.001,0.008,0.015,0.009,0.025,0.055,0.063,0.05,0.064,0.084,0.076,0.085,0.14,0.127,0.109,0.098,0.082,0.07,0.038,-0.02,-0.039,0.013,0.07,0.058,0.098,0.131,0.118,0.115,0.088,0.059,0.044,0.039,0.035,0.036,0.031,0.05,0.07,0.05,0.041,0.035,0.025,0.019,0.01,-0.016,-0.019,-0.015,-0.014,-0.005,-0.005,-0.002,0.0,0.01,0.03,0.027,0.025,0.023,0.02,0.025,0.024,0.0,-0.009,0.002,0.0,-0.001,0.004,0.004,-0.001,0.0,0.0,0.0,0.0,-0.001,-0.005,-0.005,-0.005,-0.005,-0.005,-0.005,-0.006,-0.001,-0.019,-0.061,-0.09,-0.09,-0.095,-0.088,-0.064,-0.045,-0.03,-0.009,-0.011,-0.037,-0.055,-0.055,-0.058,-0.061,-0.059,-0.065,-0.104,HR05765,0
42,0.002,-0.005,-0.006,-0.005,-0.003,0.0,0.0,0.0,0.0,0.0,0.0,0.0,0.0,0.003,0.005,0.005,0.005,0.002,0.027,0.041,0.027,0.02,0.011,0.011,0.019,0.018,0.025,0.084,0.098,0.085,0.077,0.06,0.045,0.023,-0.002,-0.018,-0.02,-0.009,0.005,0.014,0.023,0.035,0.044,0.042,0.04,0.048,0.045,0.004,0.015,0.0,-0.045,-0.035,-0.038,-0.045,-0.043,-0.04,-0.045,-0.045,-0.045,-0.044,-0.046,-0.05,-0.046,-0.048,-0.051,-0.05,-0.05,-0.049,-0.054,-0.053,-0.051,-0.055,-0.051,-0.088,-0.104,-0.08,-0.07,-0.057,-0.056,-0.065,-0.069,-0.08,-0.136,-0.139,-0.101,-0.084,-0.095,-0.099,-0.106,-0.111,-0.118,-0.125,-0.092,-0.042,0.011,0.045,0.065,0.146,0.27,0.364,0.419,0.48,0.526,0.485,0.411,0.384,0.405,0.411,0.326,0.213,0.176,0.195,0.143,0.081,0.062,0.055,0.0,-0.078,-0.059,-0.015,-0.036,-0.085,-0.087,-0.089,-0.1,-0.107,-0.11,-0.105,-0.107,-0.096,-0.067,-0.045,-0.044,-0.045,-0.045,-0.045,-0.045,-0.05,-0.047,-0.044,-0.045,-0.045,-0.045,-0.045,-0.045,-0.045,-0.045,-0.044,-0.049,-0.03,-0.028,-0.075,-0.048,-0.003,-0.001,-0.025,-0.03,-0.031,-0.057,-0.072,-0.063,-0.06,-0.062,-0.075,-0.047,-0.005,-0.01,-0.011,-0.006,-0.005,-0.004,-0.005,-0.021,-0.034,-0.033,-0.049,-0.085,-0.053,-0.009,-0.001,-0.012,-0.015,-0.025,-0.019,-0.064,-0.102,-0.05,-0.044,-0.037,-0.028,-0.022,-0.005,0.004,0.0,-0.043,-0.084,-0.07,-0.065,-0.063,-0.054,-0.042,-0.035,-0.031,-0.03,-0.03,-0.03,-0.03,-0.026,-0.022,-0.018,-0.014,-0.015,-0.019,-0.023,-0.027,-0.021,0.005,0.03,0.043,0.045,0.046,0.05,0.054,0.057,0.066,0.058,0.005,-0.047,-0.024,0.029,0.062,0.085,0.093,0.072,0.104,0.135,0.075,0.076,0.116,0.118,0.116,0.155,0.141,0.128,0.118,0.101,0.09,0.075,0.055,0.068,0.083,0.055,0.053,0.057,0.052,0.061,0.085,0.059,0.03,0.026,0.039,0.055,0.063,0.07,0.064,0.046,0.03,0.01,-0.006,-0.027,-0.04,-0.025,-0.016,-0.011,-0.009,0.008,0.05,0.074,0.034,0.001,-0.011,-0.045,-0.046,-0.046,-0.053,-0.054,-0.045,-0.037,-0.029,-0.021,-0.013,-0.005,0.003,0.012,0.031,0.019,-0.04,-0.035,-0.028,-0.03,-0.023,HR05765,0
43,-0.059,-0.045,-0.021,-0.004,0.001,-0.001,-0.005,-0.009,-0.013,-0.018,-0.019,-0.005,0.025,0.035,0.036,0.042,0.05,0.057,0.038,0.064,0.091,0.055,0.104,0.113,0.093,0.089,0.08,0.075,0.078,0.08,0.081,0.085,0.081,0.082,0.088,0.089,0.085,0.088,0.094,0.094,0.097,0.11,0.118,0.129,0.14,0.146,0.15,0.15,0.15,0.151,0.149,0.155,0.198,0.198,0.177,0.167,0.15,0.138,0.125,0.118,0.113,0.105,0.105,0.101,0.102,0.095,0.06,0.035,0.012,-0.026,-0.043,-0.01,0.017,0.018,0.014,0.015,0.015,0.015,0.011,-0.004,-0.015,-0.005,0.004,0.008,0.014,0.022,0.03,0.037,0.015,0.006,0.006,-0.02,-0.014,-0.002,0.001,0.008,0.02,0.023,0.035,0.039,0.008,-0.045,-0.066,-0.085,-0.087,-0.072,-0.065,-0.047,0.022,0.119,0.203,0.27,0.355,0.425,0.468,0.479,0.435,0.349,0.43,0.458,0.369,0.335,0.256,0.189,0.155,0.083,-0.03,-0.038,-0.041,-0.038,-0.007,0.01,0.005,0.015,-0.001,-0.033,-0.02,-0.01,-0.011,-0.006,0.001,0.005,0.013,-0.018,-0.039,-0.027,-0.02,-0.012,-0.004,0.004,0.013,0.015,-0.01,-0.015,-0.007,-0.005,-0.005,-0.009,-0.009,-0.014,-0.02,-0.015,-0.015,-0.016,-0.013,-0.01,-0.01,-0.006,-0.002,0.002,0.007,0.01,0.003,0.022,0.023,-0.016,-0.045,-0.038,-0.034,-0.032,-0.023,-0.015,-0.011,-0.006,-0.007,-0.018,-0.025,-0.017,-0.048,-0.066,-0.053,-0.055,-0.051,-0.049,-0.05,-0.04,-0.02,-0.019,-0.024,-0.025,-0.025,-0.03,-0.035,-0.031,-0.049,-0.054,-0.025,-0.059,-0.046,0.018,0.024,-0.045,-0.041,-0.029,-0.029,-0.023,-0.015,-0.012,-0.004,-0.014,-0.032,-0.045,-0.103,-0.121,-0.046,0.037,0.045,0.057,0.061,0.06,0.059,0.055,0.055,0.056,0.053,0.05,0.05,0.051,0.045,0.034,0.032,0.045,0.049,0.09,0.113,0.096,0.09,0.086,0.083,0.076,0.069,0.065,0.059,0.041,0.052,0.052,0.015,0.072,0.089,0.077,0.081,0.08,0.08,0.08,0.079,0.073,0.065,0.057,0.048,0.043,0.03,0.005,-0.001,0.006,0.011,0.01,0.01,0.006,0.007,0.012,0.016,0.02,0.02,0.018,0.009,-0.002,-0.005,-0.012,-0.024,-0.035,-0.042,-0.045,-0.038,-0.027,-0.028,-0.037,-0.04,-0.048,-0.057,-0.062,-0.066,HR05765,0
44,-0.01,-0.015,-0.017,-0.024,-0.031,-0.025,0.001,0.0,-0.018,-0.017,0.005,0.027,0.028,0.024,0.025,0.025,0.024,0.029,0.027,0.036,0.065,0.062,0.06,0.058,0.056,0.055,0.02,0.021,0.047,0.045,0.015,0.013,0.019,0.02,0.02,0.025,0.048,0.075,0.09,0.08,0.055,0.032,0.002,0.003,0.04,0.06,0.028,-0.025,-0.038,-0.025,-0.045,-0.068,-0.061,-0.039,-0.03,-0.035,-0.035,-0.038,-0.041,-0.04,-0.04,-0.041,-0.036,-0.055,-0.074,-0.04,-0.01,-0.027,-0.041,-0.008,0.02,-0.041,-0.065,-0.061,-0.074,-0.085,-0.088,-0.101,-0.085,-0.04,-0.025,-0.046,-0.051,-0.102,-0.159,-0.13,-0.112,-0.103,-0.098,-0.093,-0.085,-0.082,-0.035,-0.013,0.02,0.125,0.163,0.245,0.36,0.442,0.49,0.509,0.467,0.393,0.351,0.36,0.344,0.265,0.189,0.16,0.145,0.12,0.072,0.004,-0.056,-0.055,0.005,-0.024,-0.05,-0.028,-0.035,-0.036,-0.068,-0.088,-0.079,-0.08,-0.08,-0.081,-0.076,-0.052,-0.045,-0.116,-0.135,-0.135,-0.117,-0.045,-0.033,-0.035,-0.024,-0.04,-0.085,-0.076,-0.059,-0.052,-0.041,-0.03,-0.046,-0.052,-0.049,-0.05,-0.05,-0.05,-0.051,-0.047,-0.056,-0.085,-0.075,-0.063,-0.055,-0.042,-0.035,-0.031,-0.03,-0.03,-0.03,-0.03,-0.031,-0.026,-0.043,-0.06,-0.04,-0.025,-0.066,-0.098,-0.095,-0.1,-0.099,-0.104,-0.084,-0.022,0.02,-0.032,-0.054,-0.051,-0.063,-0.07,-0.076,-0.093,-0.07,-0.048,-0.085,-0.083,-0.079,-0.079,-0.075,-0.075,-0.071,-0.07,-0.068,-0.065,-0.065,-0.06,-0.062,-0.053,-0.056,-0.08,-0.043,-0.002,0.003,-0.006,-0.01,-0.036,-0.035,-0.048,-0.08,-0.075,-0.043,-0.013,0.027,0.031,-0.025,-0.02,-0.01,-0.007,0.002,0.01,0.023,0.028,0.033,0.042,0.05,0.058,0.065,0.06,0.04,0.025,0.032,0.04,0.053,0.058,0.045,0.052,0.057,0.053,0.05,0.05,0.046,0.041,0.042,0.036,0.015,0.01,0.007,0.003,-0.002,-0.01,-0.01,-0.01,-0.01,-0.01,-0.01,-0.009,0.021,0.038,0.028,0.025,0.021,0.019,0.007,-0.016,-0.035,-0.05,-0.071,-0.083,-0.086,-0.09,-0.075,-0.059,-0.054,-0.054,-0.05,-0.049,-0.052,-0.045,-0.059,-0.1,-0.091,-0.074,-0.065,-0.043,-0.015,-0.014,-0.015,-0.019,-0.042,-0.07,-0.072,-0.068,-0.092,-0.107,-0.06,HR05765,0
45,-0.029,-0.054,-0.005,0.01,0.0,-0.02,-0.02,-0.005,0.029,0.039,0.01,-0.01,0.0,-0.039,-0.059,-0.049,-0.029,-0.005,0.01,0.0,0.01,0.01,0.005,-0.024,-0.034,-0.024,0.015,0.024,0.029,0.029,0.005,0.024,0.01,-0.01,-0.024,-0.039,0.015,0.034,0.005,0.0,-0.02,-0.02,0.024,0.044,0.044,0.034,0.034,0.024,0.015,0.005,0.0,0.01,0.005,-0.01,0.02,0.059,0.034,0.01,0.005,-0.024,0.005,0.034,0.044,0.049,0.049,0.01,-0.029,-0.054,-0.063,-0.093,-0.142,-0.156,-0.117,-0.078,-0.024,0.073,0.156,0.195,0.249,0.278,0.259,0.224,0.254,0.303,0.264,0.22,0.264,0.293,0.307,0.293,0.239,0.224,0.244,0.234,0.21,0.171,0.122,0.068,0.044,0.044,0.034,0.024,0.024,0.005,-0.024,-0.049,-0.059,-0.01,0.034,0.01,-0.039,-0.015,0.02,0.044,0.044,0.059,0.068,0.039,-0.029,-0.049,-0.049,-0.029,0.015,-0.005,-0.015,-0.034,-0.039,0.0,0.034,0.01,-0.024,-0.039,-0.049,-0.039,0.02,0.078,0.112,0.093,0.073,0.063,0.049,0.039,0.049,0.063,0.068,0.054,0.029,0.034,0.054,0.034,0.024,0.02,0.015,0.024,0.005,0.029,0.039,-0.01,0.029,0.088,0.088,0.059,0.044,0.039,0.029,0.024,0.02,0.044,0.034,0.063,0.059,0.039,0.049,0.054,0.049,0.024,0.024,0.044,0.02,0.015,0.054,0.044,0.034,0.059,0.078,0.102,0.083,0.059,0.039,0.039,0.054,0.039,-0.005,-0.024,0.005,0.005,0.015,0.029,0.083,0.063,0.034,0.034,0.039,0.015,0.01,0.024,0.034,0.034,0.049,0.078,0.054,0.0,0.029,0.068,0.083,0.049,0.034,0.039,0.044,0.034,0.005,0.005,0.054,0.063,0.078,0.078,0.068,0.059,0.059,0.049,0.034,0.005,0.015,0.024,0.029,0.034,0.039,0.039,0.059,0.049,0.054,0.083,0.034,0.0,0.039,0.02,0.01,0.063,0.107,0.073,0.034,0.005,-0.01,0.015,0.073,0.054,0.034,0.024,0.024,0.054,0.039,0.034,0.034,0.044,0.039,0.044,0.049,0.044,0.049,0.044,0.049,0.049,0.024,0.02,0.068,0.059,0.029,0.034,0.049,0.044,0.073,0.059,0.02,0.015,0.02,0.059,0.049,0.029,0.034,0.034,0.029,0.029,0.02,0.039,0.054,0.068,0.063,0.029,0.015,0.044,0.102,JS16353,0
46,-0.039,-0.024,-0.029,-0.029,-0.005,-0.015,-0.034,-0.034,-0.044,-0.059,-0.063,-0.029,-0.005,-0.01,-0.01,-0.01,-0.015,-0.005,-0.02,0.015,-0.005,-0.078,-0.088,-0.02,-0.015,-0.015,-0.01,-0.049,-0.044,-0.039,-0.039,-0.02,-0.024,0.005,-0.024,-0.024,-0.015,-0.015,-0.005,-0.024,-0.02,-0.01,-0.015,-0.034,-0.029,-0.02,-0.015,-0.015,-0.024,-0.024,0.005,-0.005,-0.02,-0.029,-0.02,0.015,0.015,-0.005,-0.005,-0.01,-0.015,-0.029,-0.039,-0.029,-0.01,-0.02,-0.039,-0.029,-0.02,-0.02,-0.024,-0.015,0.02,0.01,-0.01,-0.015,-0.02,-0.039,-0.059,-0.063,-0.098,-0.127,-0.151,-0.19,-0.146,-0.112,-0.142,-0.093,0.005,0.083,0.132,0.244,0.317,0.303,0.249,0.234,0.21,0.185,0.185,0.2,0.205,0.215,0.229,0.22,0.21,0.185,0.142,0.112,0.122,0.132,0.093,0.005,-0.039,-0.068,-0.059,-0.02,-0.02,-0.049,-0.049,-0.059,-0.068,-0.039,-0.02,-0.029,-0.034,-0.029,-0.015,0.0,0.024,0.0,-0.029,-0.029,-0.029,-0.044,-0.049,-0.024,-0.029,-0.044,-0.024,-0.015,-0.01,-0.02,0.02,0.0,-0.039,-0.039,-0.015,0.02,0.049,0.024,-0.01,-0.059,-0.044,-0.049,-0.015,0.039,0.034,0.059,0.034,-0.039,-0.034,-0.015,-0.015,-0.073,-0.093,-0.049,-0.024,0.039,0.02,-0.015,-0.024,-0.024,-0.01,0.0,0.01,0.0,-0.01,-0.005,-0.024,-0.044,-0.034,-0.02,-0.01,0.01,0.044,0.078,0.063,0.024,-0.029,-0.063,-0.054,-0.063,-0.015,0.049,0.024,0.0,0.01,0.0,0.0,-0.024,-0.024,-0.02,0.01,0.029,0.054,0.059,0.049,0.015,0.01,0.029,0.015,-0.054,-0.049,0.015,0.029,0.039,0.01,-0.034,-0.01,0.015,0.034,0.044,0.015,0.015,0.068,0.015,0.02,0.034,0.039,0.029,0.01,0.044,0.088,0.063,0.01,0.005,0.034,0.068,0.068,0.049,0.063,0.063,0.044,-0.049,-0.034,0.029,0.015,0.01,0.034,0.088,0.093,0.068,0.059,0.024,0.024,0.034,0.024,0.02,0.02,0.01,0.034,0.039,0.005,-0.005,0.029,0.083,0.093,0.088,0.122,0.166,0.083,-0.015,0.015,0.034,0.029,0.029,0.02,-0.01,-0.015,0.029,0.073,0.073,0.049,0.068,0.068,0.01,0.054,0.098,0.112,0.098,0.073,0.093,0.102,0.029,-0.02,0.034,0.063,0.024,0.01,0.01,0.059,JS16353,0
47,-0.093,-0.088,-0.044,-0.044,-0.039,-0.059,-0.059,-0.039,0.005,0.02,0.02,-0.029,-0.02,0.005,-0.015,-0.044,-0.049,-0.039,-0.039,-0.088,-0.083,-0.073,-0.049,0.02,0.059,0.01,-0.024,-0.029,-0.024,-0.059,-0.034,-0.01,-0.01,-0.015,-0.034,-0.044,-0.029,-0.039,-0.059,-0.034,0.01,-0.005,-0.073,-0.063,-0.01,0.005,-0.015,-0.024,-0.01,-0.005,-0.034,-0.044,0.0,-0.024,-0.044,-0.054,0.0,-0.005,-0.029,-0.02,-0.015,-0.044,-0.102,-0.151,-0.093,0.029,0.034,-0.024,-0.02,-0.044,-0.044,-0.01,-0.01,-0.049,-0.054,-0.02,-0.005,-0.044,-0.054,-0.078,-0.102,-0.122,-0.151,-0.185,-0.181,-0.195,-0.185,-0.127,-0.015,0.132,0.195,0.195,0.249,0.234,0.181,0.2,0.21,0.215,0.195,0.156,0.156,0.185,0.195,0.215,0.224,0.21,0.171,0.127,0.088,0.024,-0.034,-0.054,-0.049,-0.024,-0.024,-0.049,-0.068,-0.068,-0.029,0.0,-0.02,-0.039,-0.063,-0.078,-0.054,-0.054,-0.029,0.0,-0.005,-0.01,0.015,0.01,-0.024,-0.039,-0.073,-0.102,-0.093,-0.059,-0.059,-0.063,-0.068,-0.054,-0.024,-0.02,-0.034,-0.029,-0.034,-0.083,-0.083,-0.054,-0.034,-0.024,-0.029,-0.049,-0.068,-0.059,-0.044,-0.068,-0.044,-0.02,-0.015,-0.024,-0.073,-0.068,-0.01,-0.024,-0.059,-0.088,-0.073,-0.068,-0.068,-0.044,0.005,0.049,0.005,-0.049,-0.063,-0.083,-0.083,-0.059,-0.054,-0.054,-0.029,-0.024,-0.039,-0.02,-0.01,-0.015,0.02,0.034,0.015,-0.029,-0.029,-0.029,-0.054,-0.029,0.01,0.029,0.0,-0.005,0.015,-0.024,-0.049,-0.034,0.0,-0.005,0.063,0.068,0.024,0.0,0.024,0.049,0.02,-0.005,-0.005,-0.01,0.02,0.02,0.029,0.044,0.024,0.005,0.024,0.029,0.015,0.005,-0.01,-0.01,-0.005,-0.01,0.02,0.024,-0.005,-0.02,0.015,0.054,0.078,0.054,0.039,0.0,0.034,0.039,0.02,0.029,0.015,0.029,0.039,0.049,0.063,0.063,0.034,0.029,0.039,0.039,0.029,0.039,0.024,-0.039,-0.029,0.005,0.044,0.054,0.073,0.049,0.039,0.044,0.054,0.02,0.02,0.024,0.01,0.015,0.029,0.044,0.034,0.044,0.044,0.044,0.024,0.01,0.02,-0.015,-0.015,0.039,0.054,0.059,0.039,0.015,0.044,0.059,0.039,0.049,0.054,0.044,0.044,0.049,0.044,0.029,0.034,0.034,0.054,JS16353,0
48,-0.078,-0.093,-0.054,-0.054,-0.02,0.02,-0.024,-0.083,-0.088,-0.054,-0.049,-0.049,-0.049,-0.039,-0.049,-0.039,-0.024,-0.054,-0.063,-0.088,-0.078,-0.034,0.015,0.015,-0.039,-0.063,-0.073,-0.034,0.0,-0.02,-0.015,0.029,0.015,-0.049,-0.039,-0.054,-0.063,-0.054,-0.044,-0.044,-0.039,-0.054,-0.073,-0.083,-0.063,-0.049,-0.039,-0.054,-0.063,-0.078,-0.005,0.015,-0.024,-0.088,-0.088,-0.054,-0.044,-0.063,-0.088,-0.078,-0.039,-0.044,-0.073,-0.078,-0.088,-0.068,-0.059,-0.049,-0.039,-0.083,-0.093,-0.078,-0.059,-0.063,-0.049,-0.049,-0.034,-0.054,-0.093,-0.137,-0.112,-0.151,-0.181,-0.185,-0.2,-0.215,-0.215,-0.19,-0.142,-0.083,-0.015,0.02,0.093,0.181,0.22,0.239,0.234,0.22,0.171,0.166,0.19,0.19,0.19,0.229,0.239,0.2,0.166,0.171,0.181,0.132,0.093,0.044,-0.039,-0.078,-0.088,-0.098,-0.093,-0.078,-0.078,-0.068,-0.098,-0.088,-0.102,-0.098,-0.083,-0.088,-0.063,-0.073,-0.102,-0.083,-0.034,0.039,0.044,-0.063,-0.107,-0.083,-0.088,-0.098,-0.112,-0.054,-0.02,-0.068,-0.083,-0.068,-0.054,-0.068,-0.073,-0.044,-0.039,-0.083,-0.083,-0.083,-0.093,-0.078,-0.073,-0.059,-0.049,-0.039,-0.063,-0.078,-0.078,-0.063,-0.044,-0.044,-0.073,-0.107,-0.073,-0.107,-0.117,-0.059,-0.044,-0.049,-0.039,-0.029,-0.054,-0.073,-0.083,-0.054,-0.059,-0.049,-0.034,-0.049,-0.102,-0.102,-0.098,-0.112,-0.137,-0.132,-0.117,-0.127,-0.122,-0.117,-0.151,-0.117,-0.098,-0.054,-0.059,-0.068,-0.073,-0.137,-0.146,-0.112,-0.093,-0.059,-0.044,-0.073,-0.137,-0.161,-0.151,-0.102,-0.068,-0.088,-0.117,-0.102,-0.107,-0.088,-0.098,-0.083,-0.083,-0.107,-0.117,-0.117,-0.098,-0.063,-0.093,-0.122,-0.112,-0.102,-0.068,-0.073,-0.083,-0.083,-0.093,-0.107,-0.083,-0.049,-0.049,-0.078,-0.146,-0.185,-0.156,-0.102,-0.029,0.044,-0.01,-0.059,-0.083,-0.088,-0.083,-0.083,-0.102,-0.093,-0.054,-0.039,-0.044,-0.088,-0.073,-0.049,-0.063,-0.063,-0.073,-0.049,-0.044,-0.093,-0.078,-0.049,-0.049,-0.039,-0.029,-0.063,-0.073,-0.073,-0.078,-0.068,-0.044,-0.015,-0.015,-0.029,-0.059,-0.098,-0.059,-0.024,-0.044,-0.029,-0.049,-0.039,-0.015,-0.049,-0.088,-0.049,-0.015,-0.029,-0.039,-0.039,-0.024,-0.034,-0.034,-0.049,-0.039,0.029,0.015,JS16353,0
49,-0.005,-0.005,0.01,0.02,0.005,0.0,0.005,0.044,0.02,0.02,0.02,-0.02,0.0,0.029,0.044,0.063,0.049,0.024,0.01,0.054,0.102,0.059,0.024,0.044,0.034,0.005,-0.005,0.039,0.029,0.005,-0.01,0.0,0.02,0.02,0.029,0.054,0.059,0.034,0.015,0.049,0.02,0.024,0.054,0.049,-0.01,0.0,0.01,0.024,0.01,-0.005,0.0,0.034,0.083,0.088,0.029,0.01,0.0,0.024,0.02,0.039,0.073,0.063,0.029,0.039,0.02,0.024,0.044,0.044,-0.034,-0.073,-0.034,0.049,0.054,0.039,0.054,0.024,0.034,0.054,0.034,0.024,0.039,0.063,0.044,0.005,-0.005,-0.005,0.034,0.029,-0.005,0.0,-0.02,-0.015,-0.059,-0.088,-0.044,-0.005,-0.073,-0.156,-0.117,-0.063,-0.054,-0.068,0.0,0.132,0.215,0.264,0.298,0.327,0.307,0.244,0.2,0.224,0.215,0.205,0.205,0.224,0.224,0.22,0.229,0.224,0.195,0.156,0.117,0.059,0.039,0.015,-0.005,-0.02,-0.005,-0.005,-0.044,-0.059,-0.059,-0.044,-0.054,-0.044,-0.02,-0.02,-0.054,-0.063,-0.034,-0.034,-0.024,-0.015,-0.068,-0.107,-0.068,-0.029,0.024,0.024,-0.015,-0.044,-0.063,-0.024,-0.044,-0.054,-0.054,-0.054,-0.044,-0.024,-0.039,-0.044,-0.034,-0.049,-0.044,-0.029,-0.029,-0.039,-0.044,-0.044,-0.039,-0.059,-0.083,-0.044,-0.015,-0.034,-0.044,-0.049,-0.044,-0.049,-0.054,-0.054,-0.068,-0.059,-0.034,-0.054,-0.039,-0.034,-0.029,-0.034,-0.029,-0.015,-0.044,-0.088,-0.098,-0.068,-0.029,-0.005,-0.029,-0.063,-0.078,-0.039,-0.024,-0.054,-0.083,-0.073,-0.029,0.005,-0.034,-0.029,0.0,-0.01,-0.029,-0.049,-0.054,-0.102,-0.102,-0.083,-0.049,-0.01,-0.02,-0.029,-0.02,-0.034,-0.049,-0.068,-0.063,-0.068,-0.068,-0.078,-0.063,-0.083,-0.029,-0.01,-0.059,-0.078,-0.049,-0.049,-0.039,-0.063,-0.059,-0.034,-0.015,-0.034,-0.059,-0.059,-0.039,-0.015,0.01,0.005,-0.024,-0.068,-0.117,-0.112,0.01,0.039,-0.01,-0.044,-0.088,-0.078,-0.088,-0.098,-0.068,-0.049,0.005,0.02,-0.024,-0.039,-0.054,-0.059,-0.068,-0.063,-0.034,-0.029,-0.049,-0.034,-0.01,0.0,-0.054,-0.044,-0.005,-0.039,-0.059,-0.059,-0.068,-0.044,-0.029,-0.039,-0.059,-0.063,-0.034,-0.034,-0.039,-0.01,-0.015,0.005,-0.039,-0.073,-0.059,-0.039,-0.039,JS16353,0
50,0.029,0.054,0.044,0.059,0.049,0.024,0.029,0.044,0.063,0.044,0.0,-0.01,-0.015,-0.01,0.01,0.015,0.02,0.034,0.063,0.039,0.068,0.093,0.059,0.034,0.029,0.01,0.005,0.015,0.039,0.034,0.034,0.024,0.039,0.068,0.034,0.015,0.054,0.073,0.068,0.029,0.015,0.073,0.093,0.039,0.034,0.005,-0.005,0.044,0.054,0.034,0.01,0.034,0.059,0.044,0.034,0.083,0.078,0.102,0.083,0.083,0.078,0.063,0.039,0.029,0.054,0.054,0.039,0.054,0.088,0.088,0.063,0.044,0.029,0.02,0.059,0.117,0.171,0.156,0.073,0.02,0.039,0.068,0.078,0.093,0.093,0.088,0.059,0.044,0.059,0.054,0.029,0.088,0.142,0.098,0.083,0.039,-0.01,-0.024,-0.044,-0.044,-0.054,-0.073,-0.083,-0.127,-0.049,0.068,0.127,0.112,0.151,0.278,0.351,0.381,0.4,0.361,0.303,0.268,0.298,0.303,0.317,0.342,0.346,0.332,0.312,0.307,0.268,0.239,0.239,0.19,0.112,0.063,0.029,0.034,0.015,-0.039,-0.039,-0.024,-0.005,-0.039,-0.01,0.049,0.039,0.049,0.044,0.02,-0.005,-0.02,-0.01,0.01,0.02,0.02,0.02,0.01,-0.015,-0.015,-0.015,0.034,0.059,0.054,0.054,0.02,0.039,0.039,0.005,0.005,0.015,-0.005,-0.029,-0.063,-0.015,0.005,0.005,0.005,0.02,0.015,0.029,0.024,0.044,0.059,0.005,-0.102,-0.068,0.01,0.063,0.059,0.024,0.01,0.01,0.01,0.0,0.02,0.034,0.02,0.0,-0.044,-0.024,0.054,0.068,0.044,0.029,0.024,-0.015,-0.034,0.024,0.088,0.02,-0.01,-0.02,-0.024,0.015,0.039,0.049,0.049,0.034,-0.01,-0.01,0.044,0.039,0.029,0.01,0.059,0.049,0.063,0.054,-0.02,-0.034,-0.024,-0.015,0.005,-0.02,0.005,0.029,0.034,0.024,0.01,-0.01,0.005,0.0,-0.024,0.0,0.02,0.063,0.049,0.044,0.054,0.034,0.049,0.039,-0.01,-0.01,-0.024,0.01,0.059,0.034,-0.029,-0.005,0.005,0.029,0.005,0.005,0.029,0.054,0.044,0.054,0.049,0.029,-0.034,-0.015,0.034,0.063,0.078,0.02,-0.015,-0.005,0.015,0.063,0.083,0.005,0.005,0.039,0.01,0.005,-0.029,0.005,0.073,0.063,0.049,0.02,0.005,0.02,-0.01,0.01,0.039,0.044,0.044,0.005,0.039,0.083,0.044,0.015,0.024,0.029,JS16353,0
51,0.024,0.005,-0.044,-0.039,-0.02,0.02,0.01,-0.044,-0.029,0.0,0.015,0.0,-0.044,-0.034,0.024,0.02,0.029,0.054,0.02,-0.044,-0.02,0.01,-0.024,-0.034,-0.02,0.015,0.0,-0.024,-0.029,-0.015,-0.024,0.01,0.059,0.049,0.005,-0.015,0.005,0.024,0.0,-0.054,-0.044,0.015,0.049,0.02,-0.02,-0.02,0.0,0.0,0.02,0.015,0.034,0.005,-0.029,0.015,0.015,0.01,0.005,0.01,0.029,0.024,0.0,0.005,-0.01,-0.024,-0.01,0.034,0.054,0.049,0.063,0.039,0.02,-0.005,0.005,0.024,0.0,0.015,0.034,0.039,0.02,0.005,0.034,0.044,0.02,0.015,-0.01,-0.015,-0.005,-0.005,-0.078,-0.112,-0.137,-0.137,-0.093,-0.122,-0.098,0.044,0.161,0.21,0.234,0.264,0.273,0.322,0.303,0.244,0.224,0.21,0.254,0.264,0.259,0.268,0.273,0.312,0.264,0.2,0.112,0.102,0.083,0.059,0.049,0.0,0.01,0.02,0.024,0.02,-0.044,-0.068,-0.063,-0.024,0.01,0.005,-0.044,-0.068,-0.039,0.005,-0.01,0.034,0.049,-0.02,-0.02,-0.005,-0.034,-0.034,0.005,0.02,-0.034,-0.034,-0.01,-0.005,-0.039,-0.034,0.024,0.049,-0.015,-0.029,-0.054,-0.063,-0.054,-0.054,-0.088,-0.137,-0.063,0.029,0.044,-0.01,-0.029,-0.024,-0.005,0.024,-0.024,-0.078,-0.054,-0.044,-0.049,-0.044,-0.029,-0.024,-0.044,-0.029,-0.02,-0.044,-0.034,-0.02,-0.039,-0.034,-0.039,-0.107,-0.093,-0.005,0.029,0.039,0.049,0.015,-0.044,-0.029,0.005,0.01,-0.024,-0.073,-0.068,-0.054,-0.029,-0.029,-0.024,-0.049,-0.02,-0.044,-0.102,-0.098,-0.054,-0.015,-0.01,-0.029,-0.034,-0.024,-0.063,-0.093,-0.088,-0.098,-0.098,-0.02,-0.005,-0.098,-0.068,0.049,0.005,-0.054,-0.059,-0.044,-0.005,-0.059,-0.083,-0.059,-0.049,-0.063,-0.005,0.024,-0.029,-0.127,-0.137,-0.073,-0.068,-0.039,0.0,-0.015,-0.059,-0.088,-0.083,-0.054,-0.083,-0.063,-0.059,-0.02,-0.049,-0.063,-0.054,-0.039,-0.054,-0.039,0.01,-0.015,-0.078,-0.107,-0.098,-0.054,0.024,-0.005,-0.063,-0.078,-0.093,-0.063,-0.02,-0.01,-0.024,-0.044,-0.078,-0.068,-0.039,-0.029,-0.024,-0.063,-0.088,-0.073,-0.054,-0.039,-0.073,-0.02,-0.02,-0.059,-0.083,-0.078,-0.029,-0.039,-0.063,-0.083,-0.078,-0.01,0.049,0.01,-0.015,-0.054,-0.039,JS16353,0
52,-0.009,-0.005,-0.009,-0.011,-0.01,-0.01,-0.01,-0.005,-0.008,-0.011,-0.009,-0.005,-0.005,-0.006,-0.003,0.0,0.0,0.0,0.0,0.002,0.005,0.005,0.004,0.008,0.01,0.01,0.015,0.023,0.032,0.034,0.029,0.03,0.035,0.033,0.028,0.024,0.02,0.016,0.012,0.008,0.004,0.0,0.0,0.001,-0.004,-0.01,-0.01,-0.026,-0.038,-0.04,-0.04,-0.04,-0.04,-0.043,-0.046,-0.045,-0.045,-0.045,-0.048,-0.05,-0.05,-0.05,-0.048,-0.062,-0.073,-0.069,-0.065,-0.065,-0.061,-0.062,-0.065,-0.06,-0.055,-0.056,-0.052,-0.052,-0.065,-0.073,-0.085,-0.091,-0.108,-0.15,-0.173,-0.21,-0.242,-0.242,-0.22,-0.2,-0.174,-0.116,-0.052,0.0,0.105,0.218,0.323,0.425,0.51,0.569,0.607,0.614,0.603,0.57,0.46,0.386,0.275,0.141,0.09,0.032,0.001,-0.013,-0.027,-0.03,-0.038,-0.044,-0.046,-0.052,-0.06,-0.06,-0.06,-0.061,-0.067,-0.075,-0.075,-0.078,-0.081,-0.08,-0.08,-0.084,-0.085,-0.085,-0.084,-0.08,-0.08,-0.08,-0.08,-0.08,-0.08,-0.08,-0.081,-0.078,-0.075,-0.075,-0.075,-0.075,-0.075,-0.075,-0.075,-0.076,-0.069,-0.064,-0.065,-0.065,-0.065,-0.065,-0.065,-0.065,-0.065,-0.065,-0.062,-0.059,-0.061,-0.06,-0.052,-0.049,-0.05,-0.05,-0.05,-0.046,-0.044,-0.046,-0.044,-0.04,-0.04,-0.04,-0.04,-0.04,-0.04,-0.04,-0.04,-0.04,-0.04,-0.04,-0.04,-0.037,-0.034,-0.035,-0.035,-0.035,-0.032,-0.03,-0.029,-0.025,-0.029,-0.027,-0.025,-0.024,-0.02,-0.024,-0.023,-0.018,-0.014,-0.01,-0.01,-0.008,-0.002,0.0,0.0,0.004,0.009,0.01,0.01,0.01,0.01,0.01,0.01,0.01,0.01,0.009,0.019,0.028,0.03,0.03,0.03,0.033,0.035,0.035,0.035,0.031,0.03,0.03,0.031,0.035,0.035,0.038,0.041,0.039,0.035,0.039,0.041,0.039,0.041,0.045,0.045,0.045,0.045,0.045,0.045,0.049,0.051,0.049,0.051,0.055,0.055,0.055,0.055,0.055,0.055,0.051,0.049,0.051,0.049,0.045,0.045,0.042,0.039,0.041,0.045,0.041,0.04,0.039,0.033,0.025,0.017,0.012,0.008,0.004,0.0,-0.004,-0.005,-0.007,-0.01,-0.01,-0.01,-0.01,-0.011,-0.016,-0.02,-0.02,-0.02,-0.02,-0.02,-0.02,-0.016,-0.015,-0.015,-0.015,-0.015,-0.015,-0.018,-0.021,-0.02,HR17138,0
53,-0.09,-0.09,-0.091,-0.088,-0.075,-0.066,-0.06,-0.047,-0.042,-0.06,-0.061,-0.057,-0.052,-0.043,-0.035,-0.031,-0.029,-0.032,-0.045,-0.065,-0.066,-0.061,-0.06,-0.051,-0.04,-0.061,-0.061,-0.054,-0.054,-0.045,-0.035,-0.01,0.002,0.0,0.005,0.005,0.007,0.013,0.015,0.015,0.019,0.024,0.024,0.019,0.02,0.025,0.022,0.019,0.02,0.02,0.016,0.013,0.006,0.0,0.0,-0.008,-0.012,-0.021,-0.032,-0.035,-0.043,-0.051,-0.059,-0.067,-0.075,-0.075,-0.075,-0.075,-0.074,-0.07,-0.07,-0.071,-0.068,-0.065,-0.065,-0.061,-0.06,-0.06,-0.06,-0.06,-0.06,-0.061,-0.058,-0.055,-0.055,-0.055,-0.058,-0.061,-0.06,-0.06,-0.064,-0.067,-0.06,-0.056,-0.06,-0.054,-0.072,-0.093,-0.112,-0.15,-0.177,-0.213,-0.222,-0.2,-0.185,-0.168,-0.159,-0.113,-0.038,0.03,0.142,0.239,0.338,0.435,0.495,0.55,0.574,0.574,0.568,0.53,0.43,0.383,0.309,0.2,0.15,0.094,0.079,0.075,0.056,0.045,0.038,0.023,0.01,0.002,-0.01,-0.018,-0.026,-0.032,-0.036,-0.04,-0.04,-0.04,-0.04,-0.04,-0.04,-0.044,-0.045,-0.045,-0.045,-0.045,-0.045,-0.045,-0.045,-0.045,-0.045,-0.049,-0.05,-0.05,-0.049,-0.045,-0.045,-0.045,-0.045,-0.046,-0.05,-0.05,-0.05,-0.05,-0.049,-0.045,-0.045,-0.045,-0.047,-0.05,-0.05,-0.05,-0.047,-0.044,-0.045,-0.045,-0.045,-0.046,-0.043,-0.031,-0.02,-0.024,-0.025,-0.027,-0.03,-0.03,-0.035,-0.032,-0.032,-0.035,-0.03,-0.03,-0.03,-0.031,-0.029,-0.025,-0.029,-0.027,-0.025,-0.024,-0.015,-0.015,-0.015,-0.015,-0.015,-0.015,-0.016,-0.009,-0.004,-0.005,-0.005,-0.005,-0.003,0.004,0.011,0.015,0.019,0.024,0.025,0.026,0.03,0.03,0.033,0.035,0.036,0.04,0.04,0.043,0.045,0.046,0.05,0.05,0.053,0.056,0.055,0.055,0.059,0.06,0.06,0.059,0.055,0.059,0.061,0.06,0.06,0.06,0.064,0.066,0.063,0.059,0.06,0.064,0.065,0.065,0.065,0.065,0.065,0.065,0.065,0.065,0.065,0.065,0.068,0.071,0.07,0.07,0.07,0.067,0.065,0.064,0.06,0.056,0.051,0.05,0.049,0.045,0.041,0.037,0.033,0.029,0.025,0.025,0.022,0.018,0.014,0.01,0.006,0.002,-0.002,-0.006,-0.01,-0.014,-0.015,-0.017,-0.02,-0.02,-0.024,HR17138,0
54,-0.031,-0.029,-0.025,-0.032,-0.041,-0.048,-0.049,-0.045,-0.046,-0.041,-0.044,-0.049,-0.035,-0.027,-0.018,-0.014,-0.016,-0.015,-0.007,-0.005,-0.003,0.001,0.0,-0.001,0.003,0.005,0.006,0.01,0.01,0.012,0.02,0.025,0.02,0.019,0.022,0.029,0.037,0.045,0.049,0.056,0.062,0.067,0.075,0.083,0.094,0.104,0.104,0.095,0.092,0.081,0.07,0.063,0.055,0.047,0.042,0.038,0.033,0.025,0.017,0.009,0.001,-0.007,-0.015,-0.023,-0.031,-0.039,-0.047,-0.05,-0.05,-0.05,-0.05,-0.05,-0.05,-0.054,-0.055,-0.055,-0.055,-0.055,-0.055,-0.052,-0.049,-0.051,-0.055,-0.055,-0.058,-0.061,-0.06,-0.06,-0.06,-0.059,-0.062,-0.066,-0.065,-0.064,-0.074,-0.084,-0.102,-0.14,-0.173,-0.201,-0.227,-0.234,-0.22,-0.211,-0.173,-0.133,-0.082,0.005,0.082,0.191,0.3,0.387,0.48,0.572,0.626,0.651,0.642,0.595,0.571,0.529,0.422,0.274,0.165,0.13,0.104,0.082,0.073,0.06,0.047,0.042,0.035,0.023,0.015,0.003,-0.006,-0.016,-0.028,-0.035,-0.035,-0.035,-0.035,-0.035,-0.035,-0.035,-0.035,-0.035,-0.035,-0.035,-0.042,-0.053,-0.054,-0.049,-0.05,-0.05,-0.05,-0.048,-0.045,-0.045,-0.045,-0.046,-0.042,-0.033,-0.03,-0.032,-0.017,-0.01,-0.015,-0.01,-0.014,-0.015,-0.017,-0.019,-0.015,-0.019,-0.021,-0.019,-0.021,-0.025,-0.021,-0.02,-0.02,-0.02,-0.02,-0.015,-0.017,-0.021,-0.019,-0.015,-0.019,-0.017,-0.014,-0.015,-0.015,-0.015,-0.015,-0.015,-0.014,-0.01,-0.006,-0.005,-0.005,-0.005,-0.005,-0.009,-0.011,-0.01,-0.01,-0.01,-0.002,0.0,0.002,0.005,0.005,0.009,0.01,0.012,0.015,0.015,0.019,0.02,0.022,0.025,0.025,0.029,0.031,0.028,0.024,0.025,0.046,0.055,0.055,0.055,0.055,0.059,0.06,0.061,0.066,0.07,0.074,0.076,0.074,0.077,0.085,0.085,0.087,0.092,0.096,0.1,0.099,0.106,0.11,0.111,0.12,0.121,0.116,0.116,0.121,0.12,0.115,0.118,0.121,0.12,0.12,0.12,0.12,0.12,0.119,0.115,0.114,0.118,0.121,0.119,0.115,0.115,0.114,0.118,0.119,0.11,0.106,0.102,0.098,0.094,0.09,0.086,0.082,0.078,0.074,0.07,0.07,0.07,0.07,0.069,0.065,0.061,0.059,0.061,0.058,0.05,0.05,0.05,0.051,HR17138,0
55,-0.01,-0.011,-0.009,-0.005,-0.009,-0.01,-0.011,-0.008,0.005,0.006,0.004,0.007,0.01,0.01,0.011,0.006,0.006,0.01,0.01,0.014,0.016,0.014,0.017,0.03,0.034,0.038,0.042,0.045,0.045,0.045,0.048,0.051,0.05,0.05,0.058,0.066,0.074,0.082,0.09,0.099,0.102,0.11,0.122,0.13,0.142,0.151,0.16,0.173,0.18,0.176,0.172,0.169,0.162,0.15,0.142,0.134,0.126,0.117,0.105,0.097,0.086,0.074,0.062,0.05,0.042,0.032,0.018,0.008,0.005,0.009,0.01,0.01,0.01,0.01,0.01,0.009,0.012,0.015,0.015,0.015,0.016,0.011,0.004,0.005,0.005,0.005,0.005,0.005,0.005,0.005,0.008,0.01,0.01,0.01,-0.002,-0.011,-0.021,-0.024,-0.02,-0.05,-0.083,-0.104,-0.127,-0.145,-0.128,-0.127,-0.125,-0.087,-0.025,0.029,0.11,0.226,0.35,0.455,0.549,0.659,0.732,0.754,0.76,0.73,0.659,0.603,0.535,0.39,0.249,0.184,0.14,0.099,0.095,0.092,0.081,0.072,0.069,0.06,0.052,0.041,0.031,0.022,0.01,0.001,-0.001,0.0,0.0,0.0,0.0,0.0,0.0,0.0,0.0,0.0,0.0,0.0,0.0,0.0,0.0,0.0,0.0,0.0,0.0,0.0,0.002,0.008,0.01,0.005,-0.004,-0.006,-0.005,-0.005,-0.005,-0.009,-0.01,-0.012,-0.016,-0.015,-0.015,-0.018,-0.021,-0.02,-0.02,-0.024,-0.029,-0.03,-0.03,-0.03,-0.03,-0.029,-0.033,-0.042,-0.045,-0.045,-0.048,-0.05,-0.051,-0.055,-0.055,-0.054,-0.057,-0.06,-0.06,-0.06,-0.06,-0.06,-0.06,-0.06,-0.065,-0.062,-0.059,-0.06,-0.06,-0.059,-0.064,-0.064,-0.059,-0.055,-0.051,-0.049,-0.052,-0.055,-0.055,-0.059,-0.062,-0.056,-0.049,-0.05,-0.046,-0.042,-0.038,-0.034,-0.03,-0.026,-0.022,-0.018,-0.014,-0.01,-0.006,-0.005,-0.004,0.001,0.005,0.009,0.013,0.017,0.02,0.02,0.024,0.025,0.027,0.031,0.03,0.027,0.019,0.028,0.031,0.005,0.008,0.012,0.008,0.005,0.005,0.005,0.006,0.003,0.0,0.0,0.0,0.001,-0.002,-0.005,0.0,0.001,-0.003,-0.005,-0.005,-0.005,-0.005,-0.008,-0.011,-0.01,-0.01,-0.009,-0.014,-0.013,-0.01,-0.01,-0.006,-0.006,-0.002,-0.002,-0.02,-0.032,-0.044,-0.054,-0.071,-0.095,-0.092,-0.089,-0.09,-0.09,-0.09,-0.09,-0.09,HR17138,0
56,0.005,0.006,0.003,0.0,0.0,0.0,0.001,-0.002,-0.005,0.0,0.001,-0.003,-0.005,-0.005,-0.005,-0.005,-0.008,-0.011,-0.01,-0.01,-0.009,-0.014,-0.013,-0.01,-0.01,-0.006,-0.006,-0.002,-0.002,-0.02,-0.032,-0.044,-0.054,-0.071,-0.095,-0.092,-0.089,-0.09,-0.09,-0.09,-0.09,-0.09,-0.09,-0.09,-0.09,-0.09,-0.09,-0.09,-0.09,-0.09,-0.09,-0.09,-0.09,-0.09,-0.09,-0.09,-0.09,-0.09,-0.09,-0.095,-0.104,-0.105,-0.106,-0.111,-0.115,-0.115,-0.116,-0.129,-0.14,-0.13,-0.129,-0.131,-0.128,-0.125,-0.125,-0.125,-0.122,-0.119,-0.121,-0.12,-0.112,-0.109,-0.11,-0.11,-0.11,-0.11,-0.11,-0.11,-0.11,-0.11,-0.111,-0.103,-0.103,-0.111,-0.115,-0.139,-0.193,-0.253,-0.275,-0.26,-0.258,-0.233,-0.202,-0.16,-0.085,-0.02,0.081,0.193,0.306,0.43,0.504,0.537,0.551,0.546,0.52,0.482,0.393,0.309,0.231,0.115,0.027,0.003,0.005,-0.002,-0.01,-0.013,-0.024,-0.035,-0.041,-0.045,-0.049,-0.053,-0.056,-0.064,-0.08,-0.08,-0.083,-0.086,-0.085,-0.085,-0.085,-0.088,-0.091,-0.09,-0.09,-0.09,-0.089,-0.092,-0.095,-0.09,-0.09,-0.09,-0.089,-0.091,-0.095,-0.095,-0.098,-0.1,-0.101,-0.105,-0.105,-0.108,-0.109,-0.104,-0.105,-0.109,-0.11,-0.11,-0.11,-0.11,-0.109,-0.114,-0.113,-0.111,-0.115,-0.111,-0.11,-0.108,-0.105,-0.105,-0.101,-0.1,-0.098,-0.095,-0.095,-0.095,-0.096,-0.093,-0.091,-0.095,-0.091,-0.091,-0.087,-0.088,-0.105,-0.106,-0.101,-0.1,-0.1,-0.1,-0.1,-0.1,-0.1,-0.1,-0.1,-0.092,-0.089,-0.091,-0.089,-0.08,-0.075,-0.074,-0.062,-0.049,-0.055,-0.057,-0.04,-0.024,-0.019,-0.015,-0.015,-0.016,-0.013,-0.009,-0.005,-0.001,0.001,-0.002,-0.005,-0.005,-0.005,-0.005,-0.005,-0.006,-0.01,-0.014,-0.015,-0.015,-0.015,-0.015,-0.015,-0.015,-0.017,-0.021,-0.025,-0.029,-0.034,-0.035,-0.036,-0.04,-0.044,-0.048,-0.053,-0.055,-0.055,-0.063,-0.071,-0.079,-0.087,-0.095,-0.103,-0.111,-0.119,-0.128,-0.14,-0.148,-0.155,-0.166,-0.177,-0.18,-0.188,-0.196,-0.203,-0.213,-0.225,-0.229,-0.236,-0.241,-0.241,-0.245,-0.245,-0.248,-0.25,-0.251,-0.255,-0.255,-0.258,-0.26,-0.261,-0.265,-0.265,-0.264,-0.267,-0.27,-0.27,-0.27,-0.273,-0.277,-0.281,-0.285,-0.285,HR17138,0
57,0.31,0.31,0.31,0.31,0.319,0.318,0.315,0.314,0.31,0.31,0.307,0.305,0.305,0.305,0.31,0.307,0.306,0.311,0.31,0.31,0.309,0.313,0.314,0.31,0.318,0.321,0.318,0.323,0.335,0.332,0.326,0.325,0.324,0.32,0.329,0.326,0.316,0.325,0.35,0.356,0.352,0.349,0.351,0.355,0.355,0.355,0.355,0.355,0.355,0.355,0.355,0.356,0.353,0.345,0.35,0.342,0.331,0.322,0.31,0.307,0.293,0.28,0.274,0.265,0.253,0.244,0.234,0.224,0.22,0.208,0.2,0.202,0.205,0.2,0.199,0.204,0.204,0.2,0.2,0.2,0.204,0.204,0.199,0.2,0.2,0.2,0.2,0.2,0.2,0.205,0.202,0.2,0.2,0.2,0.205,0.197,0.186,0.167,0.125,0.093,0.057,0.011,-0.017,-0.01,-0.007,0.011,0.039,0.077,0.135,0.2,0.298,0.426,0.556,0.67,0.775,0.869,0.913,0.924,0.925,0.852,0.775,0.683,0.539,0.385,0.314,0.245,0.201,0.2,0.19,0.161,0.147,0.143,0.139,0.135,0.131,0.13,0.128,0.125,0.125,0.121,0.115,0.105,0.1,0.105,0.106,0.102,0.099,0.1,0.1,0.096,0.094,0.097,0.1,0.095,0.095,0.096,0.092,0.083,0.075,0.071,0.068,0.061,0.054,0.05,0.046,0.045,0.046,0.044,0.04,0.039,0.044,0.044,0.039,0.04,0.04,0.037,0.034,0.035,0.035,0.031,0.029,0.031,0.029,0.025,0.029,0.031,0.028,0.025,0.025,0.025,0.023,0.031,0.04,0.035,0.035,0.032,0.03,0.03,0.03,0.034,0.035,0.035,0.035,0.035,0.034,0.039,0.038,0.035,0.04,0.04,0.04,0.04,0.04,0.04,0.04,0.04,0.04,0.04,0.04,0.044,0.045,0.047,0.05,0.05,0.054,0.055,0.055,0.055,0.055,0.055,0.058,0.06,0.061,0.065,0.061,0.063,0.065,0.066,0.07,0.074,0.079,0.08,0.081,0.085,0.085,0.085,0.085,0.084,0.08,0.08,0.08,0.08,0.08,0.08,0.084,0.089,0.09,0.09,0.09,0.09,0.09,0.09,0.09,0.09,0.09,0.087,0.084,0.085,0.085,0.081,0.08,0.08,0.08,0.08,0.08,0.081,0.078,0.075,0.075,0.075,0.075,0.076,0.081,0.085,0.081,0.076,0.075,0.074,0.07,0.066,0.062,0.058,0.054,0.05,0.046,0.042,0.039,0.04,0.04,0.036,0.035,HR17138,0
58,-0.058,-0.054,-0.05,-0.049,-0.057,-0.058,-0.048,-0.045,-0.045,-0.045,-0.046,-0.044,-0.035,-0.029,-0.041,-0.039,-0.022,-0.02,-0.016,-0.011,-0.012,-0.006,0.015,0.016,0.014,0.017,0.02,0.02,0.02,0.023,0.027,0.031,0.035,0.043,0.048,0.053,0.062,0.065,0.057,0.052,0.048,0.044,0.04,0.028,0.02,0.007,-0.007,-0.01,-0.018,-0.023,-0.027,-0.03,-0.03,-0.029,-0.034,-0.034,-0.029,-0.03,-0.034,-0.036,-0.034,-0.036,-0.04,-0.041,-0.036,-0.036,-0.041,-0.04,-0.04,-0.043,-0.046,-0.045,-0.045,-0.05,-0.047,-0.044,-0.045,-0.045,-0.05,-0.047,-0.062,-0.081,-0.065,-0.055,-0.058,-0.062,-0.067,-0.09,-0.135,-0.165,-0.203,-0.231,-0.21,-0.198,-0.182,-0.171,-0.152,-0.1,-0.033,0.08,0.19,0.296,0.43,0.521,0.596,0.658,0.689,0.685,0.654,0.62,0.59,0.519,0.375,0.239,0.172,0.135,0.096,0.07,0.054,0.038,0.022,0.005,-0.01,-0.016,-0.04,-0.051,-0.044,-0.045,-0.041,-0.039,-0.041,-0.039,-0.035,-0.035,-0.032,-0.029,-0.03,-0.03,-0.031,-0.024,-0.019,-0.02,-0.02,-0.02,-0.021,-0.016,-0.009,-0.01,-0.006,-0.004,-0.006,-0.004,0.0,0.0,-0.001,0.002,0.005,0.005,0.004,0.009,0.009,0.004,0.005,0.009,0.01,0.011,0.016,0.02,0.02,0.023,0.027,0.031,0.035,0.041,0.028,0.019,0.027,0.03,0.034,0.035,0.037,0.04,0.04,0.044,0.048,0.052,0.055,0.055,0.059,0.06,0.062,0.066,0.065,0.061,0.057,0.055,0.055,0.055,0.055,0.058,0.061,0.06,0.06,0.06,0.059,0.062,0.065,0.065,0.065,0.068,0.071,0.07,0.07,0.074,0.078,0.083,0.084,0.08,0.088,0.094,0.097,0.101,0.105,0.104,0.111,0.116,0.115,0.115,0.115,0.118,0.122,0.127,0.135,0.135,0.135,0.135,0.134,0.13,0.13,0.131,0.128,0.125,0.13,0.131,0.127,0.124,0.125,0.125,0.121,0.12,0.12,0.121,0.125,0.129,0.134,0.135,0.136,0.14,0.144,0.149,0.147,0.138,0.135,0.131,0.127,0.123,0.119,0.115,0.111,0.107,0.103,0.099,0.095,0.091,0.09,0.089,0.084,0.08,0.076,0.072,0.068,0.064,0.06,0.056,0.052,0.048,0.043,0.035,0.031,0.027,0.023,0.019,0.015,0.007,0.002,-0.002,-0.006,-0.01,-0.014,-0.021,-0.028,HR17138,0
59,-0.121,-0.12,-0.12,-0.12,-0.119,-0.122,-0.125,-0.125,-0.125,-0.127,-0.119,-0.109,-0.11,-0.11,-0.108,-0.1,-0.087,-0.08,-0.076,-0.072,-0.067,-0.065,-0.065,-0.057,-0.055,-0.054,-0.049,-0.045,-0.041,-0.04,-0.038,-0.036,-0.035,-0.014,-0.011,-0.018,-0.021,-0.025,-0.026,-0.022,-0.02,-0.02,-0.015,-0.006,-0.005,-0.003,-0.001,-0.005,-0.001,-0.003,-0.003,-0.001,-0.005,0.0,-0.008,-0.02,-0.027,-0.04,-0.061,-0.073,-0.075,-0.085,-0.11,-0.123,-0.134,-0.143,-0.145,-0.145,-0.149,-0.15,-0.151,-0.156,-0.16,-0.164,-0.165,-0.165,-0.164,-0.16,-0.16,-0.16,-0.16,-0.161,-0.165,-0.165,-0.165,-0.165,-0.165,-0.165,-0.165,-0.166,-0.161,-0.154,-0.155,-0.155,-0.154,-0.159,-0.166,-0.17,-0.193,-0.222,-0.248,-0.279,-0.32,-0.348,-0.343,-0.33,-0.313,-0.265,-0.2,-0.147,-0.069,0.052,0.18,0.29,0.388,0.495,0.58,0.61,0.62,0.581,0.537,0.486,0.385,0.278,0.132,0.039,0.013,-0.025,-0.049,-0.075,-0.089,-0.091,-0.1,-0.108,-0.116,-0.124,-0.131,-0.135,-0.14,-0.137,-0.134,-0.135,-0.135,-0.135,-0.138,-0.14,-0.14,-0.14,-0.136,-0.135,-0.135,-0.136,-0.14,-0.14,-0.14,-0.14,-0.14,-0.14,-0.14,-0.137,-0.135,-0.134,-0.13,-0.13,-0.127,-0.124,-0.125,-0.125,-0.125,-0.126,-0.123,-0.12,-0.12,-0.12,-0.12,-0.12,-0.119,-0.115,-0.115,-0.115,-0.115,-0.115,-0.115,-0.115,-0.115,-0.115,-0.115,-0.115,-0.111,-0.109,-0.111,-0.109,-0.105,-0.105,-0.102,-0.1,-0.099,-0.095,-0.095,-0.096,-0.093,-0.09,-0.09,-0.086,-0.084,-0.086,-0.084,-0.08,-0.08,-0.077,-0.074,-0.075,-0.075,-0.067,-0.059,-0.066,-0.076,-0.07,-0.066,-0.062,-0.057,-0.047,-0.04,-0.04,-0.035,-0.025,-0.019,-0.015,-0.015,-0.013,-0.005,0.008,0.015,0.015,0.018,0.021,0.028,0.04,0.044,0.051,0.056,0.055,0.055,0.059,0.06,0.062,0.066,0.065,0.065,0.068,0.071,0.07,0.07,0.074,0.076,0.074,0.076,0.08,0.08,0.08,0.08,0.081,0.085,0.085,0.085,0.085,0.086,0.09,0.086,0.081,0.08,0.079,0.075,0.075,0.076,0.071,0.063,0.06,0.056,0.052,0.046,0.039,0.035,0.031,0.024,0.017,0.014,0.01,0.006,0.005,0.004,-0.001,-0.005,-0.009,-0.013,-0.017,-0.021,-0.025,-0.033,-0.038,-0.042,HR17138,0
60,-0.055,-0.055,-0.055,-0.055,-0.055,-0.055,-0.055,-0.055,-0.056,-0.062,-0.065,-0.057,-0.054,-0.054,-0.048,-0.045,-0.049,-0.051,-0.048,-0.045,-0.045,-0.04,-0.043,-0.044,-0.038,-0.03,-0.022,-0.016,0.0,0.017,0.015,0.015,0.015,0.015,0.015,0.015,0.015,0.018,0.022,0.027,0.035,0.034,0.041,0.045,0.046,0.055,0.059,0.063,0.067,0.072,0.08,0.085,0.083,0.076,0.077,0.085,0.074,0.057,0.044,0.031,0.01,-0.006,-0.023,-0.033,-0.037,-0.05,-0.059,-0.06,-0.061,-0.066,-0.07,-0.066,-0.061,-0.06,-0.06,-0.06,-0.064,-0.069,-0.07,-0.071,-0.075,-0.079,-0.081,-0.078,-0.075,-0.075,-0.075,-0.072,-0.069,-0.071,-0.075,-0.076,-0.072,-0.068,-0.064,-0.065,-0.073,-0.082,-0.086,-0.102,-0.14,-0.172,-0.207,-0.242,-0.254,-0.235,-0.22,-0.197,-0.176,-0.142,-0.08,-0.027,0.094,0.222,0.34,0.49,0.586,0.661,0.706,0.726,0.73,0.668,0.607,0.53,0.396,0.23,0.105,0.053,0.023,-0.004,-0.01,-0.018,-0.023,-0.028,-0.037,-0.045,-0.049,-0.053,-0.055,-0.055,-0.055,-0.055,-0.054,-0.057,-0.06,-0.06,-0.06,-0.06,-0.06,-0.06,-0.06,-0.065,-0.062,-0.06,-0.059,-0.055,-0.055,-0.055,-0.055,-0.054,-0.05,-0.05,-0.047,-0.044,-0.045,-0.045,-0.046,-0.041,-0.042,-0.045,-0.04,-0.04,-0.04,-0.041,-0.039,-0.035,-0.039,-0.038,-0.032,-0.03,-0.03,-0.03,-0.027,-0.024,-0.025,-0.025,-0.021,-0.019,-0.021,-0.019,-0.015,-0.016,-0.009,-0.004,-0.004,0.0,0.0,-0.001,0.003,0.004,-0.005,-0.005,-0.008,-0.011,-0.009,-0.005,-0.005,-0.005,-0.005,-0.005,-0.005,-0.001,0.001,-0.002,0.003,0.015,0.012,0.007,0.017,0.034,0.045,0.05,0.05,0.052,0.056,0.06,0.075,0.094,0.101,0.11,0.13,0.129,0.145,0.156,0.157,0.175,0.182,0.163,0.156,0.167,0.17,0.178,0.183,0.188,0.198,0.205,0.201,0.197,0.193,0.19,0.19,0.187,0.18,0.183,0.192,0.19,0.178,0.171,0.17,0.169,0.165,0.165,0.163,0.156,0.148,0.14,0.137,0.126,0.117,0.114,0.105,0.097,0.088,0.083,0.078,0.07,0.066,0.063,0.054,0.042,0.035,0.027,0.019,0.011,0.003,-0.005,-0.005,-0.007,-0.014,-0.021,-0.025,-0.029,-0.029,-0.033,-0.042,-0.045,-0.049,-0.05,-0.05,-0.05,-0.05,HR17138,0
