,0,1,2,3,4,5,6,7,8,9,10,11,12,13,14,15,16,17,18,19,20,21,22,23,24,25,26,27,28,29,30,31,32,33,34,35,36,37,38,39,40,41,42,43,44,45,46,47,48,49,50,51,52,53,54,55,56,57,58,59,60,61,62,63,64,65,66,67,68,69,70,71,72,73,74,75,76,77,78,79,80,81,82,83,84,85,86,87,88,89,90,91,92,93,94,95,96,97,98,99,100,101,102,103,104,105,106,107,108,109,110,111,112,113,114,115,116,117,118,119,120,121,122,123,124,125,126,127,128,129,130,131,132,133,134,135,136,137,138,139,140,141,142,143,144,145,146,147,148,149,150,151,152,153,154,155,156,157,158,159,160,161,162,163,164,165,166,167,168,169,170,171,172,173,174,175,176,177,178,179,180,181,182,183,184,185,186,187,188,189,190,191,192,193,194,195,196,197,198,199,200,201,202,203,204,205,206,207,208,209,210,211,212,213,214,215,216,217,218,219,220,221,222,223,224,225,226,227,228,229,230,231,232,233,234,235,236,237,238,239,240,241,242,243,244,245,246,247,248,249,250,251,252,253,254,255,256,257,258,259,260,261,262,263,264,265,266,267,268,269,270,271,272,273,274,275,276,277,278,279,280,281,282,283,284,285,286,287,288,289,290,291,292,293,294,295,296,297,298,299,300
0,-1.3132094654347442e-07,-2.262692276245622e-06,-1.90641354510578e-05,-0.00010502855075254926,-0.0004269243003095541,-0.0013696980518294092,-0.00362195279173631,-0.008134948899787116,-0.015859258682659416,-0.027267598612558057,-0.04183548670214465,-0.05777249783945556,-0.07226730244179139,-0.0822954825242087,-0.08573204683004791,-0.0822882233651619,-0.07380135320424094,-0.06366536935864194,-0.055578342694746985,-0.052112141164326706,-0.05370842656317457,-0.05851981765449983,-0.06314278015677544,-0.06392050178069886,-0.05829358679982871,-0.04569904167346574,-0.02771781507067808,-0.007458043048956434,0.011561173403914755,0.02658519766217724,0.03641180762474432,0.04150980913524972,0.043457050027821055,0.0439679261018872,0.04397253186431791,0.04321087200060034,0.04056238778246998,0.03493237416963321,0.026200498807019523,0.01572051129909319,0.006141392125335135,0.0006758440086822061,0.0021422769312582496,0.012098035112489865,0.030267770754317046,0.05436809066743404,0.08037392970828426,0.10322860345248394,0.11792016867061603,0.12072135427397405,0.11026582669195881,0.088091880164504,0.05838931287490833,0.02693094337190599,-0.000529762316165007,-0.01988999212246063,-0.029810810519608134,-0.03192610668013822,-0.03006219645952982,-0.02872340472998336,-0.03137371741867789,-0.03915304445545836,-0.05053639150528311,-0.06208542088512338,-0.0699817107764697,-0.07167781402764317,-0.06694192070113256,-0.057854245742303675,-0.047804884216423704,-0.039992495436424455,-0.03610719289146076,-0.03573422825854486,-0.036654342746043914,-0.03584463461709302,-0.030754793905347175,-0.020388763375231468,-0.005823130324162068,0.010011854659294167,0.023219753434773026,0.030189644942403858,0.028758914320511215,0.018851515249047615,0.0023696553129351587,-0.01754743799356699,-0.03749935256056775,-0.0545714938162018,-0.066572129381718,-0.0717696261880706,-0.06835878865688508,-0.05394914941372529,-0.02531601392267681,0.02143832420347644,0.09026599544979134,0.18416374142599393,0.30396813629314634,0.44727033010929595,0.6078172001199873,0.7757017572137936,0.9384470340259625,1.0827933791676276,1.1967178604733375,1.2710948354999436,1.3005470628636817,1.2833919567284677,1.220970584866623,1.11684749759479,0.9762930023617398,0.806175648127305,0.6150779108737514,0.4132773208888423,0.21228151813352425,0.023809246814471885,-0.1416531235508793,-0.27640652742961497,-0.3767960319349335,-0.44377609012053426,-0.4825463020393395,-0.5012859729194328,-0.5092867422661874,-0.514944759625694,-0.5240855773114781,-0.5389900832950465,-0.5583256414254936,-0.5779984149147046,-0.5927374113261386,-0.5980094475176946,-0.5917049066820402,-0.5750264240454724,-0.5522275516107866,-0.5292495935173172,-0.5117351654286506,-0.5031525727609643,-0.5037126970491621,-0.5104240665128352,-0.5181824914274837,-0.5214365545136768,-0.5158332366021628,-0.4993299029437537,-0.4724871063934452,-0.43794866809751426,-0.3993926684185076,-0.3604081745661763,-0.3237351654193526,-0.2910908237425617,-0.26349480963459354,-0.2417612983115231,-0.22677564308112225,-0.21934128261513394,-0.2196705985790927,-0.22683730441554664,-0.2385678472752521,-0.25158757882811644,-0.2624408015178984,-0.2684425051732736,-0.26835246987219374,-0.2625261808798488,-0.25256854393538397,-0.24070755155483087,-0.22911953897188708,-0.2193412236943614,-0.21184055047984585,-0.20585529450532153,-0.199660081189052,-0.19133967678723865,-0.17988529545991183,-0.16613248255451826,-0.15295778904306817,-0.14439167949293788,-0.1438223404952457,-0.1520076328288667,-0.1658736242219569,-0.17886030922058524,-0.1829180176397761,-0.1714589436273576,-0.14204444393930976,-0.0976376620229156,-0.045864626865335295,0.003407081547910029,0.04117601891379229,0.06190603040046164,0.06475014813611116,0.053169649008710296,0.033336811677049716,0.012054850283680328,-0.005071206694884936,-0.014729575179922589,-0.01611864227967659,-0.010430582141535473,8.213087457363544e-05,0.013088036829107991,0.0268778081006268,0.040579144163215876,0.053871535148964284,0.06640764581485728,0.07730979368133604,0.08510974328179599,0.08828831509389808,0.086217541884678,0.07999801416603051,0.07262204736125177,0.0681652076098121,0.07020469243238803,0.08012357696408065,0.09612294782315729,0.1135188111776835,0.12634954729535408,0.12971730870287518,0.12191139659605389,0.1053909993472753,0.08614115061581612,0.07158241452454535,0.0678272957924543,0.07736625751180246,0.09810276872133873,0.12411013598064946,0.14779262452624825,0.1625935274023682,0.1652152861300926,0.1565486034288373,0.14103443037305582,0.12479120476738441,0.1132934676864825,0.10950913684509375,0.11315578413310849,0.12125616776090162,0.12967990925475917,0.13502506050118973,0.13609784577215955,0.13440698312651667,0.13346882247728156,0.13720720036904158,0.14813093666807695,0.16608795971101437,0.1881515760599878,0.20968820705176627,0.2261179446301644,0.23456861771043447,0.23470099884473034,0.22841291552389692,0.21868388745347783,0.2082010746517418,0.198428892011038,0.1894832842476297,0.18074113851053444,0.17176683262124218,0.16300989733803753,0.15586987178498443,0.1520828061311497,0.1527811575005149,0.15777453583470374,0.1654535401548813,0.1733295644128667,0.17886617327345625,0.18016405525141446,0.17624256318779,0.1669384428148901,0.15262433209255102,0.13396530540198195,0.11183047857679625,0.08734385798425179,0.06195986659150729,0.037428348602331685,0.015585638038141288,-0.0019705986656049744,-0.014181146092617038,-0.020672686997159493,-0.021723330201115568,-0.018121291187384318,-0.011029236017812482,-0.0019144805099553137,0.007495346013106056,0.015343030862475234,0.01995023223477551,0.02027891994544813,0.016377047885883442,0.009568781633448783,0.0022151673900394327,-0.002951226381349495,-0.003719525307150675,0.000790614896857094,0.009706619255259816,0.020549319900047016,0.02994542214332358,0.034708706776063414,0.032948845446610725,0.02482640817247934,0.012654225348935042,0.00023040012347817253,-0.008458408164940286,-0.010758009752703523,-0.006508938826598552,0.0016899070306659707,0.009334566481322816,0.011716531480356068,0.005791816020251485,-0.008564144484231425,-0.028435085705084295,-0.04889672247003132,-0.06473710608386105,-0.07215029230982936,-0.0697775644650563
1,-2.3174284684142541e-07,-3.896744928745186e-06,-3.1973711351690226e-05,-0.00017118949107846525,-0.0006748940585309932,-0.0020962028198838354,-0.005358792625776857,-0.011627558119911115,-0.021904737156069363,-0.03644510639511947,-0.054253967741657735,-0.07297818000267209,-0.08936820583082311,-0.10022517840044058,-0.10347668510950303,-0.09890113645424453,-0.08814539410171725,-0.07401891647734592,-0.059413540133459994,-0.04636632086980644,-0.03565773548591289,-0.027020836900660275,-0.019736672961445177,-0.013264437471935887,-0.007622160630642742,-0.003409230449775945,-0.0015360829902720616,-0.002827584847982172,-0.007676765744155467,-0.01586431099290912,-0.02656355463477892,-0.038464752085145375,-0.04992120238108207,-0.05906624425029144,-0.06394269296645659,-0.06274404784336603,-0.054222409453804535,-0.03818392182462731,-0.01586089764642671,0.010076699596995087,0.03599245475274322,0.05815521131846467,0.07373956805321646,0.08160105417547218,0.08253584854912344,0.07892062569169324,0.07386025289515513,0.07015367577701886,0.06944497822506293,0.0718346121266748,0.07602874333619784,0.07989686865642358,0.08119046210059926,0.07819603867396518,0.07021109694429885,0.057833797829502966,0.04306189321690812,0.02911737695886383,0.01986237718720458,0.018766468827435358,0.027632373894968556,0.04554345745164884,0.06856175858849176,0.09047643337184727,0.10446687291411721,0.10513105680668189,0.09015578230770616,0.06104513604222056,0.02268620140317621,-0.018058037042879022,-0.054238030416080024,-0.08059445251991013,-0.0947226376794042,-0.09735582363822523,-0.09177136116352665,-0.08255741330441707,-0.07412677709397318,-0.06941493966895348,-0.06914760832845332,-0.07190831795907253,-0.07499091917296098,-0.07573000014524615,-0.07276724331637482,-0.06667562898084797,-0.05961455930332438,-0.054153940159361896,-0.05184733957995103,-0.05229136073180859,-0.053168862723846154,-0.051260859211869444,-0.04391662856663324,-0.030271249069878867,-0.011681457651561478,0.008729868809294463,0.02712602181857752,0.04011458880378909,0.04558219621478908,0.04302022429728115,0.03343337448232547,0.01908504551601183,0.003306802828061322,-0.009571997214727884,-0.014306242514219756,-0.005038534804782221,0.024047173281967316,0.07778065489064416,0.1590049184147307,0.2678143629765901,0.40123732357786224,0.5533995123327626,0.7160607222977186,0.8793629479454453,1.032654836546195,1.165314354252662,1.2675339957013454,1.3310452314442278,1.3497529538450592,1.320248541348324,1.2421810301983023,1.1184754396813312,0.9553730368161351,0.7622283222580355,0.5509638308675957,0.3351033426381672,0.12839909199000665,-0.05678789235852216,-0.2110659872613166,-0.3292085208594897,-0.41068058346336145,-0.45936447045096024,-0.4825527099530521,-0.4894509136304326,-0.48951098895909834,-0.49088471547339957,-0.49919988516750796,-0.5167935764586626,-0.5425240996219979,-0.5722763686700647,-0.6001826473768606,-0.6203631419202753,-0.628730108056447,-0.6242605305204298,-0.6092584849013075,-0.5884902131741412,-0.5675195393806173,-0.5508779843244006,-0.540731368052249,-0.5364660110065408,-0.5352479008610509,-0.5332660097471901,-0.5271634798458369,-0.5151337068415989,-0.49731525355851397,-0.4754155435855178,-0.4518201483478054,-0.42865044339014735,-0.40720025590219067,-0.387920283588824,-0.3707842936464152,-0.35567851987454335,-0.3425255089586704,-0.33111610712507117,-0.32087181360346106,-0.3108137917082812,-0.29985020610476815,-0.2872421799431409,-0.27295389428962796,-0.25764516252060404,-0.24229112077468423,-0.2276571501327179,-0.21395105311600732,-0.20086066373771377,-0.18794567865690867,-0.17514030241178585,-0.16305759489727403,-0.15289086765401946,-0.14591590906075283,-0.14280335939836586,-0.1430595810223671,-0.14488169478423762,-0.14555133129882034,-0.14226334237069183,-0.1330814238153056,-0.1176301391584619,-0.09723299095652446,-0.07445766411066396,-0.052300562901469214,-0.03337787850154145,-0.01942088930561607,-0.01116236366647088,-0.008487532619644588,-0.010623569831556027,-0.016195962870834104,-0.02315236054797038,-0.0287449996960819,-0.02983873696925011,-0.023682580859122948,-0.008984462886783812,0.013168071927634976,0.03908635286580427,0.06327466378457769,0.0800907934874986,0.08565865257294264,0.07922004394354762,0.06332371763168534,0.04279010880047836,0.022973954195169635,0.008140637214024221,0.0006123846896350094,0.000850201939153741,0.008135832964320196,0.02129595789809182,0.039049801561331046,0.05991715162018231,0.08195191693439821,0.10267529749687622,0.11942766080937102,0.13005441172137536,0.13359455053171015,0.13061286978153255,0.12300961907330675,0.11340955442512501,0.10441169364795032,0.09799970599984913,0.09529551699169814,0.09665636428714086,0.10195312529816108,0.11080515341986892,0.12262018431290121,0.1364538425784029,0.1508560302231926,0.16391164125992136,0.17358489118548498,0.17830003246075807,0.17753638581013317,0.1721632490704931,0.16431815567967253,0.15681000003720866,0.1522316118056953,0.1521035217076506,0.1563760719159345,0.16348333696890938,0.17092613233257353,0.17615662281816585,0.17743068647983645,0.17432704894882356,0.16778283971287286,0.15969213825920875,0.1522685391167727,0.14741959117177061,0.14631303534100926,0.14918959434525533,0.15537808026406408,0.16344350043043737,0.17143106571914096,0.17720401300459754,0.17886514937316753,0.17519498427145622,0.16597374118521066,0.1520453304176947,0.13506823347021307,0.11704923720086367,0.09987177440529338,0.0850170938911296,0.07353231949966851,0.06612990012980953,0.06323475331787215,0.06487450539614044,0.07047308614410557,0.07874108614890728,0.08785487917596035,0.0959522092033859,0.10173303666042366,0.10481847705394516,0.10562269426717577,0.10479002028118017,0.10253716034421584,0.09831607942130811,0.09103303320245605,0.07974799434884854,0.064517484269032,0.04695312560019535,0.030169929497172357,0.018039641795524957,0.013950884476876778,0.019501413521851196,0.03362273069430067,0.0525304877732914,0.07063103525458406,0.08216920804683794,0.08308956744197192,0.07243634931845129,0.05273207570530876,0.02914019191911006,0.0076934263044333775,-0.006753731739950057,-0.01208577506545042,-0.009448625968699347,-0.0026020896060408895,0.003593122344516455,0.004967189959512441
2,-6.179809249104678e-08,-1.0687950653944192e-06,-9.044041313536034e-06,-5.0122185248422713e-05,-0.00020551356689019946,-0.0006675345273594301,-0.0017944186656081319,-0.004112525013699384,-0.008203608826955684,-0.014449944776720042,-0.02270049865755991,-0.03202774668869185,-0.04078059560465726,-0.047034883501596916,-0.04932639207544675,-0.047349141985417065,-0.04225333276795843,-0.03633352861466189,-0.03218386215309224,-0.03165873457278816,-0.03507644820273591,-0.040998710095454714,-0.04667908243747564,-0.04901677587993485,-0.04567666595554955,-0.03598762555843605,-0.02130954266446207,-0.0047349932853121,0.009788246402458525,0.018631515990463837,0.019569628321124063,0.012417349071284734,-0.0009830036433047234,-0.017394409623930015,-0.033194017076537755,-0.045391414754027706,-0.05230274954782799,-0.05366847850952027,-0.05023046216513077,-0.04302759493157459,-0.03281858142169746,-0.01998002326531889,-0.004937154524005047,0.011187305731236422,0.026223511896615426,0.03728927713290811,0.04178793947735733,0.03862246554544266,0.029000366561286357,0.01636562667016332,0.005383660797315108,0.00031943779574852664,0.0034179360102583774,0.013929841077274033,0.02820703952582264,0.04088647320615915,0.046741848514675305,0.042506520689302794,0.027990089151347056,0.006112539886900572,-0.018087504546253012,-0.0390485515084329,-0.05230690944291537,-0.05563655977072744,-0.04942787886990407,-0.036291086766326454,-0.020092523594716978,-0.004764830462879108,0.006740828207889916,0.013065800860662639,0.014473134427560047,0.012340722471026754,0.008353766383345887,0.0037584729860611465,-0.0009742541150964063,-0.005919718339103469,-0.011058747700976207,-0.015637087591833524,-0.017977202186045906,-0.015975577707394082,-0.008148555578109153,0.005243120803497307,0.021588655953161777,0.036283272993672205,0.0440978334801662,0.04114842864788952,0.026727041556047132,0.004235503031353574,-0.01921832643855862,-0.03448349568044302,-0.03271757544056143,-0.007602626619617317,0.043323785099701494,0.11861574889319357,0.2140430453480855,0.32434045356211016,0.4448001308401478,0.5720215486045299,0.7035284128024538,0.8364777725874019,0.96608834200446,1.0845465079847758,1.1809952233492251,1.2428545072474853,1.2582683001199235,1.2190394163825369,1.1231499274674879,0.9760023701289395,0.7898844789443775,0.5817327396154884,0.3698286837153303,0.1703951749545335,-0.00495130480810696,-0.1502793070338998,-0.264875009275188,-0.35166864830207445,-0.4152911020810879,-0.460471032231327,-0.4911843698082289,-0.5105717208236475,-0.5213388388334712,-0.5262453467388739,-0.5283393200535296,-0.5307398841019002,-0.5359700998500764,-0.5450748312011947,-0.5569463011058285,-0.5682997606575559,-0.5745220610762787,-0.5712270886847449,-0.5559829674296688,-0.5295195916666963,-0.49586991473124115,-0.46129316881341415,-0.43231255075156017,-0.41357100625209087,-0.40630409534428974,-0.4080002765991704,-0.4133585668803182,-0.4161553966761438,-0.41130831612930135,-0.3964078151157198,-0.3722648694405752,-0.3424305620652103,-0.31198142917318095,-0.2860157655788129,-0.2682928679480891,-0.2603501788774382,-0.26129705393023483,-0.2683058355549475,-0.2776147178359404,-0.2856901027788997,-0.2901512137104508,-0.29016647618767133,-0.28624332233079486,-0.2795621954291366,-0.2711693155163491,-0.2613884734891341,-0.24972015647744084,-0.2352878836222047,-0.21763727095523128,-0.19749705509204132,-0.17706842353797483,-0.15956621285951916,-0.14806860540788605,-0.14412730965069045,-0.14684180142286427,-0.15299039800116143,-0.15829073217411674,-0.15919573386688896,-0.15427088676524436,-0.14442870511327652,-0.13197188603324733,-0.11905876324749193,-0.10645518432445422,-0.09319839511137265,-0.07727931358382308,-0.056946307335474566,-0.031968279716676054,-0.004248468708378791,0.022506315734366775,0.043939074943084966,0.05655558992782171,0.05899804422737399,0.05258415544067506,0.040903936075915796,0.028624603239760626,0.019951877544411648,0.017317931792558233,0.02076193046289012,0.028187873160424592,0.0363541362961725,0.042202598228709615,0.04404803324691832,0.04222602803458068,0.0389937630201882,0.03771901264548155,0.04160827087282359,0.05237397183676109,0.06930253681477075,0.0891244654368785,0.10686215208459197,0.11746196291318883,0.11764595554128883,0.10725118501025972,0.08948482128242025,0.06995107328181932,0.0547953575129527,0.048645510873625876,0.05308886410997856,0.06620791126624048,0.08330291607131532,0.09851151693191526,0.10674742946788067,0.10531294453071934,0.09469088048654266,0.0783170209659501,0.06146821175632831,0.04966852731265087,0.047135769850571316,0.05573264592314273,0.07468304162054472,0.10104438320641679,0.1306889658373666,0.15941810813043608,0.18384679470174406,0.20183700012196265,0.2124690738988028,0.21573967746015948,0.21226938433546194,0.2032297839163153,0.19048231407046004,0.17669161413900877,0.16510593553215389,0.15886476043855322,0.16000860399123543,0.16862285296758914,0.1825714273049176,0.1980393284975962,0.21073381175476757,0.21728796011289964,0.2163184687944166,0.2087435914859157,0.19727787002247896,0.18533685353471688,0.17578239690746658,0.1699716409124173,0.1674596582387807,0.16648169489719122,0.1650440946656243,0.1621626758348805,0.15864027537384476,0.15690376014007598,0.15984418955877872,0.16915644806858984,0.18404679104374386,0.20108641175250247,0.21540435447212514,0.2226471042139181,0.2206734223404758,0.21011327565827115,0.19359196765761894,0.17416413389989988,0.1538691499630213,0.13314237236338894,0.11126570967763645,0.08746674502626524,0.061982747738801164,0.03650215725544728,0.013776207745684294,-0.003368840422625612,-0.013110734451105268,-0.015286711830688617,-0.011346107749543694,-0.003663586085091713,0.005438956620151148,0.01450548424324922,0.02323503830959669,0.03214108042154934,0.04178042797800327,0.05197372113057647,0.061450628762401184,0.0681187926010212,0.06980227420069028,0.06505041790564804,0.053636144071549846,0.036598611538714465,0.01594381145291965,-0.005776327188857032,-0.02585740924934559,-0.04180094569788951,-0.05170264271099351,-0.054678897872963636,-0.05120695925909906,-0.043166988266930044,-0.03342968872237413,-0.025028576688929785,-0.02018701482542351,-0.01959981058782552,-0.02231038974964156,-0.02628334772834685
3,4.634856936828508e-08,7.490679204284245e-07,5.859414646906461e-06,2.958686979125593e-05,0.00010835694842096041,0.00030569288295724203,0.0006850798681255146,0.001227250229583822,0.0017028161718529492,0.0015700426142957217,4.064611782083564e-06,-0.0038778823676150474,-0.010651792111645204,-0.02025589069966203,-0.0318744910054691,-0.04410041938765562,-0.05528793833257299,-0.06393121992592463,-0.06893533141615435,-0.06973980417436981,-0.0663375988305492,-0.05925774647909382,-0.04954046118253208,-0.03866076204001525,-0.02831258384479335,-0.02000693757115049,-0.014566091257209375,-0.011736935922237283,-0.010190406232271779,-0.008048728845106806,-0.0038184374717749898,0.002661168861577289,0.009750739108589404,0.014372110327484342,0.013183518496599558,0.0041423674647679785,-0.012229398222792356,-0.032521337067336606,-0.051337414106532635,-0.06316368703180719,-0.06444596613407044,-0.05495370266242028,-0.03780219379421633,-0.018144847175714643,-0.00118022746011371,0.009611645569564843,0.013303950793553083,0.011253827854735492,0.006069958053429905,0.00041448354776125323,-0.003825241031699917,-0.005739863626591381,-0.005060817871571775,-0.001622945382460896,0.00496684290233356,0.015209835963562107,0.029208008173117406,0.046104037175646484,0.06387031084697933,0.07967487976071172,0.0907487776467957,0.09540665245403228,0.09375775324308827,0.08774424525934534,0.08043056696090346,0.07481987798571668,0.07271405660642564,0.07412308630154023,0.07746609368230067,0.08043977840363584,0.08115617845767692,0.07907237772650397,0.07532716907587278,0.07230520351888986,0.07253415840317803,0.07732566427581451,0.08575709206849641,0.09451175815116798,0.09874025815821326,0.0936530255456789,0.07624953788298208,0.046568259420509524,0.008053850299555229,-0.03306842587955126,-0.06926330547169059,-0.09365215173010527,-0.10196711476903031,-0.09390380200934893,-0.07337431460342639,-0.04747461931909783,-0.024428673768765452,-0.01115995027230805,-0.011284479839572214,-0.024159243027121555,-0.04524371315315995,-0.06760730642763878,-0.08408781993063982,-0.08944604187683823,-0.08188005819721113,-0.06344936382657881,-0.03928485513352607,-0.015850457013989294,0.0011488110943828275,0.008478628014320548,0.006101343616438531,-0.0033143926784981806,-0.015840277631041372,-0.028031591961747256,-0.03818463369412943,-0.04654581373974451,-0.05438167837762077,-0.06233812496063291,-0.06885500039944425,-0.06940807561146103,-0.05701885357628582,-0.023945441181736082,0.03603068598422558,0.12556308561737536,0.24268493662242197,0.38106999597656266,0.5314154626535408,0.6833672248247578,0.8273216967095596,0.9556179525443196,1.0629085741571007,1.1457276829962582,1.201458047809534,1.2271014301549328,1.2184522456405418,1.170298472277405,1.0779563416741405,0.939814583055447,0.7599101751289046,0.5492782222461524,0.3251483130115854,0.10789382834662087,-0.08341260376506879,-0.23537209406095214,-0.3430824414958281,-0.4104954080973099,-0.44827026572496603,-0.46992533744524756,-0.48760198454264325,-0.5088017809998839,-0.5350533187800853,-0.5627550783191608,-0.585671491817819,-0.5980172595590176,-0.5969583641252703,-0.5837035218030557,-0.5629717312234239,-0.5412250137420019,-0.5244302265957481,-0.5161723736843606,-0.5167210218622214,-0.5232650792808613,-0.5311222498417714,-0.5354290653129574,-0.5327099999373801,-0.5218259956911051,-0.5040610371581138,-0.48241948594771883,-0.460464141020788,-0.4411410669000377,-0.4259852604276891,-0.4149177690641393,-0.40661050669804605,-0.3992001655325991,-0.39104357884458885,-0.38124324471480076,-0.3698023455654204,-0.35742866423762104,-0.34512931796891005,-0.3337839711374724,-0.3238530677793833,-0.31529661371386164,-0.30768147311208865,-0.30037434407476804,-0.2926915381802281,-0.28393199464125995,-0.2733330570334937,-0.26007867490861397,-0.24347706797139324,-0.22330320558718586,-0.20014999293159869,-0.17555821573855362,-0.15176009243544425,-0.13105032828763227,-0.11499715648935341,-0.10381520671531419,-0.09618346240864827,-0.08962823955146931,-0.08138387831123829,-0.06947212889039506,-0.05364647603698586,-0.03584674510468609,-0.01991708067852009,-0.010555102591197796,-0.011733610054997758,-0.025077620263866063,-0.04878968980173517,-0.07762173378718192,-0.10407605846997467,-0.1205613816837684,-0.12180853747213373,-0.10666811629200426,-0.07858212722586873,-0.04449577555387617,-0.01256362639910312,0.010531983599872466,0.021674667998362363,0.02205136180918961,0.016267059638652066,0.01019754772127069,0.008461769801002043,0.01258303357421699,0.02063878974528246,0.028548980163907108,0.032403863415495684,0.030739030685674473,0.025667899531092907,0.02228538393250926,0.026540336559464008,0.04248993229593447,0.07015938934227592,0.10497498360190996,0.13904290448057371,0.1637614007746307,0.17274183747954844,0.16396009742101114,0.14042162615165418,0.10920299055308726,0.07928456587115106,0.05892684756195923,0.053402843719661135,0.06372195267392274,0.08664975493743445,0.11593418854090234,0.14429531673089752,0.1655299359804562,0.17608935748668764,0.17569877219949573,0.16692093298288382,0.15391251730300076,0.14086788042452206,0.1307153392825038,0.12450532682862747,0.12164849169472922,0.12081761379362363,0.12104763072143676,0.12247992782848036,0.12636401845504344,0.13429663684281923,0.14707404426709358,0.16375088820462752,0.18141553205851593,0.19585343490051632,0.202866401425488,0.19975006162049513,0.1863958613195597,0.16563589843359552,0.14269253928100095,0.12385225494039626,0.11470587819683024,0.11844221118351453,0.13470581219800304,0.1594095041099728,0.18564238095937582,0.20549310251251607,0.2123081570161754,0.20272492854362545,0.17783156797346258,0.1430282087887346,0.10655137349123166,0.0770656946668277,0.061070179213942075,0.06096693011828388,0.07443853382259855,0.0953386732830996,0.11578011856798318,0.12869689767108766,0.13001127566673676,0.11970179904655906,0.10148079143410582,0.08129035354246239,0.06522226719763918,0.05760753151418271,0.05986786479560141,0.07037773361874598,0.08523162204165001,0.09958048929878532,0.10911179077380123,0.11125361990050689,0.10576610498812179,0.09456082959238596,0.08084990545995298,0.06797666224040709,0.058385430546324966,0.053079228450197934,0.0516530976476944,0.05273027025962044
4,-1.0814666185933188e-07,-1.837947365882434e-06,-1.5258693613488287e-05,-8.27601832423123e-05,-0.0003309632312680995,-0.0010442202959524806,-0.002715579902547299,-0.006002305728243834,-0.011532977912994343,-0.0195913044000651,-0.029797279470695062,-0.0409556306946508,-0.05120371443985882,-0.058472046666691965,-0.061119421809036734,-0.05849462023269442,-0.05117484236591999,-0.04075652214157,-0.029276129074115628,-0.018517931712537898,-0.009529425268896032,-0.002571657067019409,0.0024918675373534985,0.005621380730599033,0.006242018063641624,0.0034132570626189823,-0.0034725412592617093,-0.013827971817004278,-0.02539338583904511,-0.03455740282258574,-0.03749199265732746,-0.031675133196222185,-0.017120382656305957,0.003293524614386728,0.02462702630208155,0.041553659597053504,0.05024625381954246,0.04970836610353366,0.04200546399867003,0.03130847156709245,0.022164128159316503,0.01773660264444224,0.018770083101150765,0.023685008036781467,0.029684415480735683,0.03426709801671557,0.036370455849828794,0.03659976437312916,0.036516254779728384,0.037460954055388074,0.03960438396934335,0.04173827099023533,0.041892855574143816,0.03842302255931364,0.030980495193012145,0.020867841779660633,0.01059127526254142,0.0028274105778756838,-0.000695111181912708,0.0001421347104877341,0.003957272230054427,0.008682004739935424,0.01265919577957907,0.015467387450131036,0.018068208998079854,0.02222664157331049,0.029505382462272765,0.04029474193625804,0.05326277148509037,0.06540343251967048,0.07266530213780076,0.07101449972347688,0.05768884232249294,0.03230737334120859,-0.002545603681983705,-0.04155950801662231,-0.07781805893753677,-0.10453986217681036,-0.11691685251444695,-0.11345151342401154,-0.0963408693142766,-0.07076942984528639,-0.0433359209192651,-0.020125011173927607,-0.005057036536147495,0.00093389562707882,-0.00037478336517104646,-0.005715747340840711,-0.011947577247379895,-0.017329901127491484,-0.02189770121608009,-0.026842966995282283,-0.03332459232977304,-0.041406143395281675,-0.04972721562968515,-0.056108337582296004,-0.0587771140905979,-0.05753516143857298,-0.0541593577676168,-0.051696117766812585,-0.05289936947537099,-0.05855298413184285,-0.0665068385222949,-0.0718878778303576,-0.06835963748077682,-0.049841592464500026,-0.011977918566143733,0.04714586854958619,0.12715259490798198,0.22611668306647537,0.34139452104966045,0.4700550420530201,0.6086926714601473,0.752785926120382,0.89604651376093,1.030228863340028,1.1456393056086593,1.2322516622595334,1.2810971930784325,1.28555498347785,1.2422864276330734,1.1517187948069911,1.018093571839082,0.849131740149101,0.6553609321989227,0.4491413340321032,0.24344397399333317,0.05047929800907969,-0.11966598134928082,-0.2601696572612687,-0.3681573840498763,-0.4447454002034215,-0.4943983266557885,-0.5237435418616605,-0.5401330797013124,-0.5502892915559612,-0.5593070927642476,-0.5701594841443495,-0.5837141547532103,-0.5991503321048739,-0.6145922296688489,-0.6277669315790692,-0.6365449434849013,-0.6392997895522369,-0.6350970859236026,-0.6237782696688764,-0.6060233358747266,-0.5834291474993851,-0.5585222437267168,-0.5345195348215612,-0.5146842220012511,-0.5013405378740204,-0.4948918925357067,-0.49332881043860893,-0.49258254237985427,-0.4877199127228964,-0.47457879608013337,-0.4512277619221703,-0.41870060076419674,-0.38075171338789654,-0.3427488598651529,-0.3101096370549933,-0.28680174825973187,-0.2743493975027601,-0.27157689907878435,-0.2750771313515998,-0.2802090753021973,-0.2823410629465285,-0.27804226568258233,-0.2659501225381821,-0.24710098814826564,-0.2246213032118733,-0.20283253520671124,-0.18598333923495775,-0.17693781533772096,-0.17619312534065934,-0.18155836177516826,-0.1886776834221032,-0.19232318040000226,-0.1880850025803002,-0.17388100126729103,-0.15071910396033072,-0.12240452757244574,-0.09429738394557993,-0.0716069526830035,-0.057867354282290506,-0.05410196657653678,-0.058847741112180385,-0.06887054770963635,-0.0802133882805899,-0.08921486425433632,-0.09325153730962846,-0.09110407045982064,-0.08296205000091345,-0.07015094788059084,-0.05470097684792198,-0.03889205636399509,-0.024885941742165747,-0.014475012017707518,-0.00886815327772144,-0.008394183688000212,-0.012110866000307466,-0.0175182233024005,-0.02072371833385318,-0.017329472684325442,-0.003977583392835434,0.019949228294705593,0.0512565379579579,0.08319485288981801,0.1072591198383708,0.1160534425675272,0.10616758176879354,0.07987040892540853,0.044838022255874056,0.011921672436487542,-0.008254473903131922,-0.008640424945559458,0.012111305651384938,0.049414214903131484,0.09439906458489121,0.1367962637219434,0.16803015199810797,0.1835109914267078,0.18345452584581187,0.17209909348086966,0.15573466488371682,0.1403276806583791,0.1296022794744861,0.12420595206122556,0.1221471042359604,0.1202214073640885,0.11581109012737402,0.10834084765993841,0.09982266965229276,0.09427234469258802,0.09621593072184721,0.10885430174324452,0.13257182668933404,0.16433184176164006,0.19819132246451446,0.22681855504750312,0.24359267623865952,0.2446526891684316,0.2302148329667495,0.20465756818995465,0.17526661530962687,0.15000668050326507,0.13505333821824658,0.13292781123873057,0.14188317409540588,0.15676168148458794,0.17102460156713134,0.17921855881010465,0.17894780458268517,0.17158208742503575,0.16143124565433353,0.15376795923111222,0.15257327237108068,0.15896948318455897,0.17095598840846699,0.18446098542730063,0.195153410284256,0.20016954920548943,0.1990070571221096,0.19327054926803214,0.18551321895704462,0.17783206788536848,0.17093284401003575,0.16407123281287497,0.15578891459991875,0.14496808788068546,0.13161795215765273,0.11700255744491449,0.10308998528399563,0.0916521540084796,0.0835047010333894,0.07827430466402899,0.07477575314897494,0.07174704963817544,0.06851997052709866,0.06528158212512994,0.06283861890739695,0.06206714075949132,0.06336898993117074,0.06641200589471677,0.0702498112039451,0.07370670972382576,0.07578788204707086,0.07589986168306853,0.07381753173375376,0.06950721378030666,0.0629941948207247,0.054401398620678804,0.04413791388559867,0.033089378550024307,0.022639270882427814,0.014438409099074685,0.009978990937395411,0.010137895128547693,0.01487625170766816,0.023210393812100626
5,-6.179809249104678e-08,-1.050255637647105e-06,-8.656351863564921e-06,-4.626820952566497e-05,-0.00018106321597288088,-0.000555626167639036,-0.0013987808856909436,-0.002983414474554536,-0.005519407122442513,-0.009004181043707177,-0.013078556688082586,-0.01694533144496827,-0.019409563699595414,-0.019088048432963155,-0.014792524869657132,-0.006012575847661676,0.006661375255036739,0.02137637799357678,0.03527198102808791,0.04516635029945065,0.04849891073360834,0.044206951276267156,0.03319160363051316,0.01816036969630364,0.0028666330871089853,-0.009004970245886956,-0.014936093902718696,-0.014310364465058975,-0.008586466232314552,-0.000892795958711287,0.00481828003960034,0.004827693142519235,-0.0033413053044485225,-0.02020037868946541,-0.04402292699979281,-0.0710729110512436,-0.09628743031716462,-0.1143079654901361,-0.12071548782331437,-0.1132469430064449,-0.09265894496453717,-0.06285480923363344,-0.030022383349981266,-0.0008752918490135403,0.019469109617646946,0.029144986407277126,0.02997216990175649,0.026408252631050438,0.02344726306366027,0.024401961682758475,0.02954810195429768,0.03617586685430487,0.039938609704612736,0.036844135552461556,0.02502717990009594,0.005615294236476042,-0.017571206487740146,-0.039273757433311955,-0.05447528988637981,-0.059904231622253695,-0.05490648432570819,-0.041487728240830475,-0.02359513950417714,-0.0059124357037260225,0.007449011719757249,0.013980144039834209,0.013247539427121818,0.006716108634963974,-0.0029646546358560013,-0.012933343972274983,-0.021009401648177686,-0.026226854511007605,-0.028882099264733063,-0.0301507839111284,-0.03147205378960268,-0.03395487287788899,-0.03801582244952831,-0.04333257736068087,-0.04905144689427183,-0.05409896062688629,-0.05746368592241866,-0.05840703785784207,-0.056639870676666475,-0.052481330023898716,-0.046895448038254954,-0.041183592352150945,-0.036152032775285996,-0.030851450080683337,-0.021387705577887092,-0.0005548180153773334,0.04111124674053424,0.11283475980460143,0.22036673780087415,0.36321527607766624,0.5335036563775118,0.7170411287531286,0.8963234658779556,1.054415755702859,1.178344373181858,1.2608681786681277,1.3001950080256237,1.2980632075476843,1.257263746664612,1.1798529713449408,1.0669076384274934,0.9198677932293426,0.7426788950247938,0.5435024860694304,0.33493948486363345,0.1323938273194888,-0.04896401846837117,-0.1975778320743914,-0.3080340280493322,-0.38186701947433005,-0.42640913425754,-0.4521480656103682,-0.4695437789373234,-0.4863697751932663,-0.5063628902576701,-0.5294177177685002,-0.5529703439459897,-0.5738245677625249,-0.5896349722351549,-0.5995555744119873,-0.6040148029834952,-0.60396176025872,-0.6000866666184269,-0.5924199230014608,-0.5804482079654238,-0.5636019371945384,-0.5418033362750309,-0.5157841032120032,-0.48705196481405755,-0.4575885481720267,-0.42946734697592787,-0.4045418351017536,-0.38423676885708785,-0.36939680061096847,-0.36016564664532835,-0.35594245852345957,-0.3554937373702904,-0.3572386059620558,-0.35961656259928465,-0.361383724190552,-0.36172177276735357,-0.36015689504727405,-0.3563941930596979,-0.3502064899024881,-0.3414596604785233,-0.33024976240647663,-0.3170355673399675,-0.302628961864994,-0.28797613958689605,-0.2737959480111461,-0.26026265203786125,-0.24694386634973242,-0.2330942561231406,-0.21820634711897938,-0.2025371619163227,-0.18727618644245075,-0.17415714842172592,-0.16460692815768316,-0.15882731895231242,-0.1553302993538787,-0.15128048831532961,-0.14359918284113207,-0.1303682852008358,-0.1118752942471915,-0.09077091454046038,-0.07119771430636185,-0.05720308341539361,-0.051074494652483815,-0.052299297619071386,-0.05762291367640521,-0.06223561442097072,-0.0616353445757181,-0.053407275114200244,-0.03818029375478192,-0.019366685148228625,-0.0018070639909214606,0.010106246318233869,0.014062562651617797,0.010592890320462674,0.002710816455249246,-0.0053486427668241,-0.009723523500439119,-0.008190506063627936,-0.0006512395996483167,0.011195750267232359,0.024650596312135953,0.036814826488183974,0.045144463385787884,0.047814943311950665,0.04410152307874978,0.03482297396476612,0.022603395575460677,0.01157828407130148,0.006379424463814537,0.010666276049625813,0.02581638531909356,0.05038047628938543,0.08054039640517863,0.11132256871390585,0.1380159422256741,0.15726440325157387,0.16756506375499636,0.16920017740807064,0.16380312691785304,0.1537829261665515,0.14177450197712038,0.13021254886922692,0.12106751986655608,0.1157252944028502,0.11493915323504679,0.11876607966545313,0.126456458756331,0.13638380552451257,0.14619160573305565,0.15329373181004827,0.1556736602965398,0.15269234674793974,0.14550169940977373,0.13677805953829905,0.1298047048415394,0.1272748306319323,0.13034756072198997,0.1383599331663476,0.14925296296825324,0.16042312707432288,0.1695652111072363,0.1751882727904628,0.17675189471592856,0.17458723455861916,0.16979410280135884,0.16415569478910674,0.15994014312030236,0.15943001581668648,0.16418545882507352,0.174291478722151,0.18797331784780624,0.201865120705659,0.21193237642541135,0.21474730980956624,0.20865760620569432,0.19442818574040477,0.17512922823456661,0.15530229024347242,0.13967073470603913,0.13180127304088468,0.13312952592026323,0.14263020719226627,0.15718338002860976,0.17245063052334614,0.1839366065460111,0.18793492732255695,0.182204522675852,0.16637101548279967,0.14208661782061724,0.11290433607829412,0.08373760705452696,0.05982400547141871,0.04533316221991947,0.042036472020033334,0.048584122726333966,0.06077999773539552,0.07285526071100397,0.07931547289215843,0.07669022476433426,0.06456122138279333,0.045551354810480255,0.024371394483654475,0.006344741296164514,-0.004072107739472473,-0.004376409423967427,0.0054732887477458355,0.02314071004709174,0.04449317332519878,0.06452331860883231,0.07841240598267618,0.0825267771683887,0.07516773997554509,0.056949585247292815,0.030742588391000865,0.00117785274059393,-0.026230237609461242,-0.04622170274898127,-0.05498849700656851,-0.0511617981362907,-0.03630213766169321,-0.01468007692412309,0.007699592974423224,0.024658900190474925,0.031604083448743776,0.0269433311353082,0.012640940709564102,-0.006385092309313542,-0.023906752136130194,-0.034527330986330235,-0.035530342355213296,-0.02771972889446958,-0.014923284916955347
6,-3.089904624552339e-08,-5.792011497532185e-07,-5.195393712262427e-06,-2.971623514716522e-05,-0.00012174827919572367,-0.0003800205628522005,-0.0009364900813454737,-0.0018566676196583472,-0.0029706872179951793,-0.003757939427003934,-0.0034661992102307895,-0.0015363542416223877,0.001852145915749297,0.005506226325892726,0.00754545989623749,0.006307852239530016,0.0013903896422690636,-0.005804648826123285,-0.01243729676746324,-0.015439555915065573,-0.013011549629755,-0.005651420244155295,0.003832953307319565,0.011388658805856794,0.013389577456923632,0.008155692919559792,-0.003355770848425462,-0.017966149534678358,-0.03157766480718491,-0.040778133867579364,-0.04408007850757231,-0.04231750785810953,-0.03807203637389445,-0.03436654966103101,-0.03314851221581864,-0.03420796644727221,-0.035062421923585003,-0.03197248855561793,-0.02173919555408363,-0.0035105523643350657,0.0202698733964012,0.04431461735702506,0.062272742000146805,0.06915154653042463,0.06336031133927092,0.04746518585617105,0.027265111982120567,0.009525104024649603,-0.0006880267649354635,-0.0019300336821274923,0.003242806593341573,0.009551735082244394,0.011312888609583079,0.004757138483967366,-0.010621228239784519,-0.032161819615961096,-0.055370699610763734,-0.07574452685185787,-0.09021958041004577,-0.09769411630114283,-0.09861429605504866,-0.09407197561215608,-0.08501551409132599,-0.07199659137348022,-0.05551059644310845,-0.03663897243485137,-0.017528381711685775,-0.00131046120412711,0.008656689548691261,0.009983310778717535,0.0023683999348352875,-0.0118971406967204,-0.028354387625168835,-0.041649189441840956,-0.047221765370411714,-0.042819003227706424,-0.029311624272182715,-0.010546983251791653,0.00772493160458005,0.019548723416352744,0.02061720255090965,0.009783062319945841,-0.010172195624472153,-0.03272129133016262,-0.048703079219366105,-0.04811751197175432,-0.022185406946513844,0.034824491348832975,0.12444133576283209,0.2437479633237218,0.3859987285320223,0.5418086439211232,0.7005298426966089,0.8515002068351291,0.9849950163428509,1.0928324808412628,1.1686418846330686,1.2078416840214672,1.2074469854226202,1.1659151595117787,1.0832563880365855,0.9615065520063373,0.8054104013513197,0.6229304640078649,0.42514107022999736,0.22525540667497346,0.03688423969801835,-0.1280500954645142,-0.2611851022412589,-0.3588998112292251,-0.4225469553206697,-0.45771684061647905,-0.47272870424971525,-0.47671509503725507,-0.47775774355142897,-0.481506224004602,-0.49055608854637506,-0.5046351651440033,-0.5214279890583456,-0.5377193749674525,-0.5504873248636487,-0.557639139614215,-0.5582584113069216,-0.5524516468362353,-0.5410344959743,-0.5252857555740118,-0.5068380666813318,-0.4875936407169117,-0.46949328791945477,-0.45407214593790735,-0.4419239443486151,-0.432335482555037,-0.4233593008485229,-0.4124548600293791,-0.397584069528008,-0.378372285987067,-0.3567699697119346,-0.336719763109645,-0.32271082170881704,-0.31766917418565105,-0.3211025310932462,-0.3284817984001386,-0.33238007706263395,-0.32508913317939686,-0.30169978729167135,-0.262355567861285,-0.21271175158957922,-0.16238067163665476,-0.12194829671961069,-0.09965771545176734,-0.09890870824109929,-0.11736481583690223,-0.14786906729339394,-0.1807673906295711,-0.20681812026513316,-0.21974202557804443,-0.21765068170308022,-0.2030020796893044,-0.18123519850324812,-0.15866410339718048,-0.14040901956862484,-0.1290319968157982,-0.12420001664258512,-0.12330201124083084,-0.12266963576425591,-0.11895755198621367,-0.11028769401578956,-0.09687773900841991,-0.0810011055103726,-0.06625703086160863,-0.05630085222783972,-0.05341274330631607,-0.05747631124960904,-0.06590769739230973,-0.0747031108986219,-0.08019173774945329,-0.08064607545811095,-0.07692554793942434,-0.07182758939749591,-0.06849683496042139,-0.06870437218144157,-0.07181980658087705,-0.07490191249018661,-0.07378667215259051,-0.06464759063924846,-0.045401092384020236,-0.016499050305463975,0.019060571563818435,0.05642121692375775,0.09002733481402513,0.1149758677705197,0.12825125436096546,0.12951683390849494,0.12118565283558341,0.10767872117501925,0.09407210000506158,0.08460101610764319,0.08157454432360142,0.08509184793133172,0.0936088516029744,0.1050426520518025,0.11787756906982913,0.13173996938078156,0.14715021805440687,0.16457133745924882,0.18328642661092087,0.20081446561144142,0.213354624470852,0.2172007039055703,0.21049387267594485,0.1944323378630222,0.17328359435241866,0.15311177524280573,0.13972579307314892,0.13668507067147484,0.1441457568445544,0.1589545848363808,0.17588737326635764,0.18950461005659228,0.19591982170970937,0.19388944857936477,0.1849504092224811,0.1726944851709099,0.16152913871664581,0.1553620561011197,0.1565798847922729,0.16553710326518534,0.1805965576219789,0.19861946877525682,0.21572435547087793,0.22813130134167542,0.23295084840063782,0.22881172185858104,0.21621885549732112,0.19752047830926325,0.17640330180007294,0.15696478424780264,0.14259306531892596,0.13501533910613123,0.13385688044093463,0.1368739683905002,0.14077277230559496,0.14232406837181932,0.1394044040754142,0.13164148935852626,0.12047716760437364,0.10863868193084572,0.0991853141320372,0.09443264115634595,0.09511051941728772,0.10005186083091835,0.10653727738699072,0.11118667431809355,0.11108474380583996,0.10474360326697434,0.09258190323604214,0.07679877832171908,0.06074735237725082,0.04806117008226952,0.04179797570152648,0.043759278129227246,0.05401843081157365,0.0706557105038933,0.08978187792874012,0.10602673503118097,0.11362122381852567,0.10795839603514278,0.08720584270815557,0.05337547061226333,0.012363843734440882,-0.02719736133280468,-0.05605729834974059,-0.06688957639878766,-0.05653621847652183,-0.027221216362598444,0.013748194041939,0.05580040251566855,0.08792676295213127,0.10167090924698677,0.09340336213508399,0.06524092945232543,0.024359481206044864,-0.01911098547142158,-0.05501298616828311,-0.07604224881693758,-0.07968994675924204,-0.06863054675519065,-0.04945521723194406,-0.03022951004559618,-0.017769806951311935,-0.015604180658948384,-0.023267604756388643,-0.03702311353847853,-0.051564985577703004,-0.0619752971055762,-0.06523967842223329,-0.06089952084494318,-0.050782135995095984,-0.03806897680289939,-0.02613028943313838,-0.017531076278697953
7,-1.8384932516086416e-07,-3.1260554743124134e-06,-2.5987355875780678e-05,-0.00014118573851206283,-0.0005652850699534249,-0.0017828439790289461,-0.004620993769657105,-0.010133568353489882,-0.01919495883498485,-0.03187420861751237,-0.04687250045938379,-0.061400394476974214,-0.07173564950194333,-0.07438034921258471,-0.06740234409308385,-0.05139213851564514,-0.029583068191481952,-0.007018230223994351,0.010955596473880995,0.02031402728212852,0.019521564710629685,0.009871376473056307,-0.005046229496059998,-0.020516706354818653,-0.03214186956000528,-0.03714645266626803,-0.03519018884804232,-0.02842519863576081,-0.020717732652052893,-0.016209461228144578,-0.017666443113479653,-0.025238671167673532,-0.03619827909719617,-0.04587818780659068,-0.049500931945023405,-0.044138304002435125,-0.02994394234084361,-0.010122669549329562,0.010332408980681648,0.026579475893871392,0.03573613942514658,0.03784596386806882,0.035669599342560074,0.03345010432064999,0.03519359676526571,0.04315659121910571,0.05709702719648117,0.07450118231505193,0.09159776235316368,0.10468375767927662,0.11122980826168039,0.11040961676540727,0.10299339086333145,0.09079628715256499,0.07597440035912614,0.06041774156517766,0.04537768080114626,0.03135859157351852,0.018231009003914733,0.005485010618430043,-0.007468375910000713,-0.0210216434414625,-0.03515418539357374,-0.04927840990200019,-0.06217583669177562,-0.07211357450748854,-0.07724549337162318,-0.07628247761527339,-0.06919911657127745,-0.05759628953316907,-0.044417299517272385,-0.033017101726529954,-0.02593766887132544,-0.023934353525323533,-0.025715821507617802,-0.028545439164795905,-0.029460260007398462,-0.02658035554341558,-0.019938415135612324,-0.011477852860195464,-0.004242047807638493,-0.0011241633486920102,-0.003703162987532813,-0.011609349183261407,-0.022621722728007138,-0.033426763783206276,-0.040754989907125394,-0.042502027781346374,-0.038457539886620484,-0.030404802042077787,-0.02156809661455191,-0.015596829681870466,-0.015412955386582092,-0.02226831408588665,-0.03525923980581143,-0.05137650693774608,-0.06600477769167767,-0.07368096051171882,-0.06889154808642478,-0.046733752593235686,-0.0033683896501157384,0.0636941824388812,0.1553749051573827,0.270795661115772,0.4070301898070624,0.558900152867235,0.718933211241964,0.8776254941958945,1.0241189293485577,1.1472881294047435,1.237063151369918,1.2856847115203478,1.2885833371318156,1.2447076581386358,1.156331318388537,1.028533115431531,0.8685831746940174,0.6853724308815663,0.4888796386299611,0.2895909439806845,0.09781229051284235,-0.07710575806517342,-0.22754852960085548,-0.34832116731873536,-0.43714395677572215,-0.49488609429523117,-0.525478244888191,-0.5354485386805087,-0.5330427991081543,-0.5269535438519377,-0.5248049719456512,-0.5316830770466049,-0.5490889975856266,-0.5746677660050702,-0.6029027778492818,-0.6266973473364574,-0.6394632369149685,-0.6371080036741613,-0.6192649337791979,-0.5893046542951154,-0.5530831693567771,-0.5168812368679745,-0.48534961933235404,-0.4602859905501266,-0.440689812623045,-0.4239552692447065,-0.4075713310846347,-0.3905291412817423,-0.37382795339133373,-0.3598993012541525,-0.3512481616764266,-0.348957665830077,-0.35177875639700634,-0.35627609040753794,-0.3580195094006144,-0.3533197793840397,-0.34074655095813167,-0.32175416309700183,-0.30012300836417133,-0.2804235546182915,-0.26612073425906696,-0.2581021814647152,-0.25426848071458336,-0.25040320119703313,-0.24199001942741283,-0.2262010009840518,-0.20318031665490816,-0.1760719676129642,-0.14982792901914427,-0.1293702861779839,-0.11790130430104992,-0.11599422054836087,-0.1216940785818018,-0.13143636452927046,-0.14132638654075075,-0.148277044610963,-0.15064642697208872,-0.1482696133492847,-0.14203333262996837,-0.13328441598054236,-0.12333531552212465,-0.11318346260892975,-0.10341919930478091,-0.09424497108532028,-0.0855512202551357,-0.07702410822129582,-0.06826306286832932,-0.05888332481983223,-0.04859560834329642,-0.03727951020811862,-0.02506655228267566,-0.012414510302777758,-0.00011899571609499601,0.01078872583405678,0.019262113920818336,0.024525993641963367,0.026344556291000253,0.025181429974127145,0.022180216954767965,0.01893761015212873,0.017112724530170743,0.01799110149729392,0.022156509494762486,0.029390168247087525,0.03882612836724861,0.049285591159643455,0.05964096919240048,0.06905605326698458,0.07701867325901282,0.0832018622789526,0.08730025978355757,0.0890142606019196,0.088253361814317,0.08545221454285497,0.08176698842600545,0.07895060445457722,0.07887825610686078,0.08289120563112543,0.09122925965535052,0.10279211917849801,0.11534493443116141,0.12612863275959874,0.13270230298139757,0.13376197964608758,0.1296645845555608,0.12245086851860675,0.1153076216859946,0.11160502143918956,0.11381846313920597,0.12271292173822156,0.13708733016439012,0.15417270354731175,0.17053613693851466,0.18316333083748498,0.19034324886785026,0.19207148263310525,0.18987846040707324,0.1861922029551803,0.1834805731953433,0.18344614291109426,0.1864906282367355,0.19157897000026272,0.19654775328482024,0.19881063301783683,0.1962978852867792,0.18834678724820228,0.17619898906395343,0.16283342377924592,0.15208803457074596,0.14732814143835446,0.15016050807133244,0.15973170293943445,0.17293860516854734,0.1855007447687898,0.19347761275717273,0.19463484140449,0.18914374498794645,0.17937877700551957,0.16891934478025342,0.16113742290130306,0.15788650542876442,0.1587720727730148,0.16128260091014163,0.16174559988669135,0.15675587809280203,0.14453326112893483,0.1256894216907079,0.10311723881112607,0.08107044909276902,0.06382315650393833,0.054435420474790754,0.05403917602598347,0.061777851350582134,0.07525827818539654,0.09124537496618815,0.10635943807866557,0.11763384632094619,0.12287660162520249,0.1208373448458949,0.11122703171592466,0.09466258719560425,0.07259004593823605,0.04718052762746355,0.021137740522913867,-0.002646133852752943,-0.021583431627576317,-0.03393163628795148,-0.03920984441401097,-0.038324053061096,-0.03332119057351571,-0.02682390232659848,-0.021315065958386663,-0.01849226061184333,-0.018881742906824116,-0.021807784136751416,-0.02569692699076022,-0.02860631696275448,-0.028834242019218075,-0.0254883731547605,-0.018905190521221946,-0.010804995562863799
8,-1.0505675723477952e-07,-1.7452658238808976e-06,-1.4096629543624298e-05,-7.403546615324059e-05,-0.00028541184197323534,-0.000864659611786336,-0.002152638845035701,-0.004548208016467912,-0.008361874936669707,-0.013658679108657725,-0.020199912291016073,-0.027555058066279926,-0.035346425429247694,-0.04347652907779285,-0.052156271631402656,-0.06164392331927108,-0.0717877817216086,-0.08163615738447624,-0.08941623337157187,-0.09302830083111344,-0.09091032175488933,-0.0828598367022381,-0.07033551767430657,-0.05598322720232826,-0.04254871385194875,-0.031707532277966154,-0.02341933382996461,-0.016134707719439173,-0.007720652848285277,0.0033871820853084763,0.01735322778828479,0.03275030496267383,0.046997455094641045,0.057181528104431834,0.0609486595316585,0.05720965137758567,0.04650966268048437,0.03101314885905176,0.014126688720709067,-0.0001710165124319922,-0.008176727196804644,-0.0073134109751445235,0.0032316399574350285,0.02226600525540023,0.046819267810727726,0.07277077759038512,0.09571886336615257,0.11189837088859872,0.11894229161830579,0.11628514294647327,0.10506730235197466,0.08756160522618271,0.06635533055319846,0.043643089306866154,0.020908026867744966,-0.0009737040783374361,-0.021406965710981142,-0.03980373805557824,-0.05552162203196066,-0.0679893761179501,-0.07687592068377055,-0.08217390598913876,-0.08417252450152776,-0.08338069489884246,-0.08045939506367443,-0.07615617264099817,-0.071193968357924,-0.06610573691804483,-0.0610911805025969,-0.056013054220295594,-0.05059058711372303,-0.0447153642246843,-0.03870726861226835,-0.033335888919600876,-0.029564587244912968,-0.02814025617188204,-0.029235545284150538,-0.032307688232246654,-0.036222201852617195,-0.039586061923117276,-0.04118306003964628,-0.0403843240768388,-0.03739174729179134,-0.033176149829030305,-0.029040573952114915,-0.025881273278038894,-0.023368327443173194,-0.019329059165585295,-0.009554400097196353,0.011881429430028442,0.051801125433206835,0.11666454306629141,0.21098674546138996,0.33569890234187816,0.4869154352452667,0.6556494885874738,0.8288197000244739,0.9914324317400784,1.1293196561195153,1.2315390899549925,1.2916634201026131,1.3076582259655718,1.2806517251708844,1.2133441954242803,1.1088793916070034,0.9706798695323098,0.8032030463492679,0.6130733371392418,0.40981813152195457,0.20557579924813663,0.013586274131163423,-0.15416850684396027,-0.289377373852965,-0.3889758141585652,-0.4553076799251775,-0.494869849805291,-0.5161775071674298,-0.5275371008507677,-0.53540560601867,-0.5436648845296475,-0.5537418556433789,-0.5652337492830743,-0.5766470796983482,-0.5860031922505555,-0.5912751852532807,-0.5907597650465637,-0.5834862741275997,-0.5696523014002878,-0.5509373189476373,-0.530474146897138,-0.5123080283844095,-0.5003449248266145,-0.4970309978321915,-0.5022159074763883,-0.5127124602806077,-0.522889446543783,-0.5262502428852425,-0.5175154199172692,-0.4944573926651434,-0.45877625543065653,-0.41565516050078155,-0.37214134011724076,-0.33494700171948055,-0.308468414444841,-0.2937075841478896,-0.2884089708071963,-0.2882549882708654,-0.288588730695847,-0.2859892447663794,-0.2791492430251511,-0.2688277728395672,-0.2570344535305934,-0.2458950378165431,-0.23673191262890142,-0.22973230582175014,-0.22424728099093566,-0.2194300285616799,-0.21476031028037126,-0.21011112524971529,-0.20533959510482763,-0.19972737951178648,-0.19173094754893472,-0.17933567071389556,-0.16094412724391674,-0.1363896743537213,-0.1075437700428784,-0.07813931404482485,-0.052776553258835845,-0.03544466828342474,-0.028120928372810362,-0.03001305388951303,-0.03778837636046964,-0.04675595782144823,-0.05256625123529878,-0.05273928989575851,-0.04737180673763748,-0.038726866149733634,-0.02992710945132749,-0.02339681012731787,-0.01980511884566285,-0.01799564394858309,-0.0158870065122873,-0.01185059269473029,-0.005846222963146099,0.0002779234158422194,0.003506247279794747,0.0010875091978726006,-0.007980305037595316,-0.022107577121637398,-0.03732236398305153,-0.04846870448823136,-0.05089699427720394,-0.04195708896710531,-0.021740104151291725,0.00710432888714229,0.04023837518189766,0.07274634860337519,0.10011720111376213,0.11897872022144343,0.12763845201288876,0.12644941913421542,0.11786131789949261,0.10596064852243611,0.09546345325420004,0.09040521047490623,0.09296819696631717,0.10286794338260313,0.11751755285084196,0.1329241612404998,0.14504445732968607,0.15117266569578472,0.15088018458397015,0.14612355096581695,0.14041827066209067,0.1373687980824832,0.1391671869187298,0.14573434746284597,0.1549116671920364,0.16362449485343056,0.16946057267351244,0.17187808210321348,0.1724204948619168,0.17381514298314157,0.17841710341608089,0.186810357415591,0.19730082694912007,0.20657708388904716,0.21122520264798655,0.2093724943230887,0.2016954332043908,0.1913452497251559,0.18283060609867338,0.18031466991909795,0.18597775399973085,0.19903920082670426,0.2157914492035036,0.23067125790564103,0.23806115391733584,0.2342550791051922,0.21891912123331694,0.1954951074763681,0.17032413503493324,0.15070534041049077,0.14249049226944344,0.1480037880220156,0.165003467538055,0.18709255207274653,0.20553376437302417,0.211961045632161,0.20114738990549746,0.17290357963245656,0.13240802108271427,0.08877171902841857,0.05226805638285971,0.03116095378473987,0.029225467629413224,0.044790252299003214,0.07155267985821437,0.10077734270004851,0.12404838828891329,0.1356484067704793,0.13386499808077457,0.12094900043404086,0.10189444442591394,0.08253935664806193,0.06763017128195509,0.05944712605418557,0.05738182532242999,0.05853981573654624,0.059095077828408824,0.05586788899956011,0.047538254102172606,0.03507578854975154,0.021291818217464443,0.00975349504416916,0.003497342076530569,0.003977936570998324,0.010536178251698948,0.020486514262964366,0.029789018928438025,0.034176207403940326,0.030474686768869674,0.017704514821220617,-0.0025030588623915235,-0.026413305584443228,-0.04944186396624193,-0.06759499777964859,-0.07845219537018067,-0.08132088402471739,-0.07666367247085396,-0.06528969314868355,-0.04788349695804804,-0.025171394696309357,0.001433153980601301,0.02922414879124277,0.054196788098506074,0.07188114721016287,0.07875234604050053,0.07356241849615723,0.05791172191583706,0.0357456186638974
9,3.089904624552339e-08,4.015316338414589e-07,2.212987609521627e-06,5.416697614377701e-06,-6.654214131228724e-06,-0.00011632950068447743,-0.0005655085003660628,-0.0018644361200861857,-0.004830959390106351,-0.010461521060745745,-0.019598894428117734,-0.0324788766464995,-0.04833445821790433,-0.06525059955089726,-0.08039228220733943,-0.09060999168230387,-0.09329706337809508,-0.08726043592124662,-0.07330763366042055,-0.05429226191175286,-0.03451366193787413,-0.018592145831704814,-0.01015129752139899,-0.010740784587629653,-0.01937495981253764,-0.03285796721334768,-0.04679184740237677,-0.05692823980282622,-0.06041540307824054,-0.056539452297036275,-0.04673277855536157,-0.03386971857461514,-0.021125060938372395,-0.010844191353854546,-0.0038677634797812457,0.0004533307115479933,0.0036224653559216655,0.007054833197484408,0.011228202539871193,0.01526638176229466,0.017139829170510237,0.014454768858352503,0.005568486179295104,-0.009404096026147252,-0.02813437801787419,-0.04641862084976198,-0.05923613712261527,-0.062169441366180245,-0.05270480717944249,-0.030990879259949783,0.00017704143852771692,0.03612827175199228,0.0715751651404517,0.10191971881104654,0.12416958635201612,0.13722689624383116,0.14161361443209808,0.13890482317613298,0.13113837721409477,0.12031798203572865,0.10800107290654443,0.09497670361285931,0.08114256707459007,0.06573213533307627,0.04792313477018939,0.027630182073287143,0.0061098068400940245,-0.013979511869801018,-0.02920898054637623,-0.03654950623887202,-0.03467053606529916,-0.02483907073111128,-0.01095917327989672,0.0014338447119372592,0.006984187573648217,0.002477728656349269,-0.011865574340262797,-0.0323653055740572,-0.05317500347972443,-0.06836985528290754,-0.07397783942765689,-0.06918120067756559,-0.05630823861964032,-0.03972733023785434,-0.024139323755695413,-0.012933850141950698,-0.007212245830235511,-0.00581252514995168,-0.006270865050198402,-0.006257633835003743,-0.004813964029674327,-0.0028093419620038923,-0.0024126592460736087,-0.0058413671947739314,-0.013996004511598291,-0.025633478546834683,-0.03745850739047736,-0.04505833748445438,-0.04420897526556689,-0.03194347780918265,-0.00694364277147478,0.03082473414665527,0.08096971661251763,0.14358960127283177,0.2198355204213654,0.3118395231648863,0.42189309566646915,0.5509656650401377,0.696921224836839,0.8530581601667786,1.0076903189669473,1.1452509978681342,1.2488572407039091,1.3036625783095348,1.29997917011556,1.2352494689716245,1.1144071465186862,0.9487131251154013,0.7535315580562438,0.5456414150137864,0.3406421622243059,0.15091614580094592,-0.015517747433435591,-0.15512266357396232,-0.2680623463591375,-0.3568838445585354,-0.42512469400278274,-0.47622995671138685,-0.5129838705771081,-0.5374665694744687,-0.5513919175903607,-0.5565825821095756,-0.5553047585702958,-0.5502410641841439,-0.5440391788425458,-0.5386013865392206,-0.5344755927825038,-0.5307398418543522,-0.5255689756916566,-0.5173078662321426,-0.5055543790830048,-0.4916831042964632,-0.4784828224834459,-0.46901410977014474,-0.4651871804604124,-0.46671144818330207,-0.47090980143040906,-0.4735118132896274,-0.47012602286171734,-0.4578221462559496,-0.4362262525201092,-0.4077353140287013,-0.3767969158981523,-0.34853686111178783,-0.32722122034889056,-0.3150437977718241,-0.31156878211639594,-0.31393747822459306,-0.31775968548028155,-0.3184694814184213,-0.31279996974176516,-0.29992928705538197,-0.2818509850355466,-0.2627141611412473,-0.24725700193903793,-0.2388774166288461,-0.23812329132252902,-0.24227783125912225,-0.24627468071815847,-0.24460216083818012,-0.23342297261447822,-0.21204763688463657,-0.18318596058474523,-0.15191806789603013,-0.12384171888316803,-0.10315032972924557,-0.09136842381453777,-0.0871586884538861,-0.08717661778103405,-0.08757196997946436,-0.08554345487405503,-0.08037189531590115,-0.07355234698742098,-0.06795867307228605,-0.066330780510403,-0.06967243530539664,-0.07626062628835331,-0.08180063384379452,-0.08082780024390271,-0.06891274909923117,-0.044809868938445116,-0.011603766651454045,0.023773984606206236,0.05266307040880253,0.06774031007497253,0.06587182062953975,0.049566929805352045,0.026341647254939093,0.006138546739127733,-0.0022251360937795978,0.005814589904002517,0.029077078474355228,0.06129272024319588,0.09352926968413741,0.11734457978747079,0.12744876783557227,0.12300331115795243,0.10732276070122385,0.08634969007945127,0.06660394343447151,0.05331332321555022,0.0492181504812307,0.054249486774553886,0.06601130974028775,0.0807996063697197,0.09478690171042588,0.10500013741254752,0.10982563307342645,0.10896720357118807,0.10300371020324428,0.092848943207054,0.07942680411233284,0.06372024057909394,0.04710748244137671,0.0316980983243364,0.020341988767272154,0.016137512422204278,0.02153553639372345,0.037384455386527085,0.062355099706283335,0.09306473812178073,0.12493039288197434,0.15345664296680278,0.1754639066428426,0.1897943796747363,0.19727711568944792,0.20005857300564048,0.20064238153964561,0.2010284876954358,0.20221087703574275,0.2040912013065006,0.20571128449759746,0.20565510383250626,0.20249630318971362,0.195214259669417,0.18353386575892672,0.16815481821215167,0.1508258922280629,0.1341928644776273,0.12134085836831049,0.11502656905296497,0.11677222810701628,0.1261763749009212,0.1408220721540898,0.15694412319151374,0.17064633361184378,0.17915747289810172,0.18156921069473705,0.1787500368441737,0.17254844228276517,0.16475467554440218,0.15637142738393575,0.1475045911272327,0.13779649721139783,0.1270451705471169,0.11563182620623903,0.10456479602210236,0.0951785212649175,0.08866862427164783,0.08566621437681068,0.08599787790954799,0.08869503829572574,0.09223636786212253,0.09494057610644778,0.09538585230868638,0.09272985100808372,0.0868441752483065,0.07825005054300907,0.06792132419635748,0.05706179608998564,0.04692787080384274,0.038676201641651684,0.03315708204652953,0.030620891592879146,0.03043015536327401,0.03096612925447428,0.02990195196944117,0.024887473348029276,0.014510094798415963,-0.0007823992607285321,-0.01822183721365837,-0.03309733466441115,-0.040072038547327264,-0.03510869483416429,-0.01728897748921445,0.01029699355749376,0.04114012206909315,0.06735168268115053,0.08246665419055987,0.0838795860228007,0.07379946679001582
10,-1.0814666185933188e-07,-1.9182848861207945e-06,-1.6573042516124416e-05,-9.323179764583179e-05,-0.0003853019272458671,-0.0012515187074993686,-0.0033378503787997215,-0.0075384309638578135,-0.014750605173214106,-0.025446827573780237,-0.03923131604339363,-0.054629766893976583,-0.06930254640076502,-0.08068511091212582,-0.08683420276226425,-0.08712000887900848,-0.08244532305114669,-0.07488587948691916,-0.06691307721226253,-0.060529954065925165,-0.05665012637134609,-0.054916707703933546,-0.05398322795685634,-0.05212794254692265,-0.04797628130907186,-0.04107823063746022,-0.03213637466809546,-0.022795834169867808,-0.015055076937987584,-0.010491091289200342,-0.009573658375265828,-0.0113434692894371,-0.013632913451597853,-0.013821895640005032,-0.009888147409497072,-0.0013293479283463857,0.010477399743592302,0.022697164745468373,0.0320915357629083,0.03623082560659878,0.03429658593071224,0.0271232006223749,0.016550582992738525,0.004547551708290614,-0.007333581481057956,-0.017881492910019867,-0.02571256632794765,-0.028851035135067517,-0.024905517397569382,-0.011949507007133733,0.010288537787830378,0.0396010625330645,0.07140134119880077,0.09986042174752723,0.11967612095527072,0.12775388977756513,0.12411480487745499,0.11169252382794026,0.09515098293449216,0.07922306659750278,0.06719742770302824,0.060061494896585355,0.05653016856126671,0.05386064741067602,0.049078343918128105,0.0401136662830058,0.026434583349458873,0.009025115398113837,-0.010132882645589099,-0.028743964874124683,-0.044764915683472496,-0.056755620516565596,-0.06407450515175453,-0.06698792185802896,-0.0666633728030438,-0.06494205380607145,-0.06383585737670816,-0.06484737019616517,-0.06835732291313772,-0.07335683811487184,-0.07769306444584577,-0.07879442813430962,-0.07463211536200809,-0.06454927308779368,-0.04961508378142093,-0.03234113093207362,-0.01585905746677098,-0.0028840157569216818,0.00512321260680346,0.008269030711148095,0.00791242043767299,0.005888311891537365,0.00363197778530318,0.0016071155446007474,-0.000698132531384503,-0.004194954600454295,-0.009271590026416527,-0.014893835341801285,-0.018082072814033186,-0.0139825076732356,0.0034473448808102145,0.040311543086480855,0.10150316441425765,0.18959768076125058,0.30413987168963236,0.4414217602681704,0.5947331708240833,0.7549967966324377,0.9116672665556257,1.0537522887787834,1.1707995035966667,1.253714607234634,1.2953579697824393,1.2909764364822078,1.2385841482021505,1.1393527366935858,0.997931837152386,0.8224928368362037,0.6242755660478528,0.4165555389861697,0.21316663683503623,0.026869395382911054,-0.13214176315237272,-0.2574000549301319,-0.3468862158554933,-0.40319990601634886,-0.43305513435880844,-0.4460216587862319,-0.4525993343409629,-0.4619564460671319,-0.47988114239950613,-0.5075583865131059,-0.5416130057614073,-0.5754802624535166,-0.601710632306365,-0.6144630171660844,-0.6113491758275156,-0.5940325573681687,-0.5674725225221405,-0.5382106621095079,-0.5123810712201413,-0.49410265706947554,-0.484668773005525,-0.48264329867280314,-0.48470754778879604,-0.4869164825277959,-0.4859353417692489,-0.47986659744296173,-0.4684506071803118,-0.45268202721429507,-0.43411749032695623,-0.4142365699559463,-0.39410873540873026,-0.3743910541337076,-0.35549265183764717,-0.3377074743868417,-0.3212226053058366,-0.30604311772502035,-0.2919315484061754,-0.2784220041972492,-0.26489961380621335,-0.2507123091578147,-0.23531794286539057,-0.21850363160876132,-0.20067361461681782,-0.18308782817275368,-0.16783941846806055,-0.1574007461629743,-0.1537739188642702,-0.1575485311262966,-0.16731701313761152,-0.17980292858991498,-0.19074636253156294,-0.19622607192012972,-0.19387272484777182,-0.18345680722535096,-0.1666166349423945,-0.14591064272785317,-0.12372627278757198,-0.10163727797691927,-0.08049472738340292,-0.06103397986211953,-0.044419927114585964,-0.032203813514288075,-0.025606379528483887,-0.02456528545925827,-0.02722043082773097,-0.030295400588623147,-0.030307679940235803,-0.025035189543414823,-0.014487038935066053,-0.0008737891007794887,0.012405380806012225,0.022248490142241503,0.02709860138368843,0.027406596009552697,0.025168623872401933,0.022835150860526537,0.022160336484993347,0.023552581594173495,0.026205835094994388,0.02887503767367758,0.03082420893566984,0.03240091863930127,0.03491334420311494,0.039880050032337216,0.04807082176558595,0.05887095144149273,0.07032675540300426,0.07987552167194414,0.08542842693573766,0.08632297949595637,0.083732168711976,0.08034391054186056,0.07940579506953907,0.08347796518475074,0.09337537857956921,0.10774603736432624,0.12350323145564399,0.1369733118890582,0.14529200439733925,0.14745577691569034,0.1445901188742844,0.13935751381710215,0.13480646124366763,0.13317661490085947,0.1351474579578262,0.13979536948218085,0.1452194582612134,0.14952863438125147,0.15174619885842847,0.15223304575569463,0.1524362450261496,0.15405756714165825,0.15800551423217712,0.16363814254723077,0.16872826395201282,0.17027206166186962,0.16584254727981207,0.1548851493558065,0.13934349280067462,0.12329758974329313,0.11173015863803679,0.10888998805437576,0.11685159403599649,0.1347632801032169,0.15900925134194638,0.18419891942989647,0.20464600713200176,0.215883097929233,0.21578633530326916,0.20502318089123078,0.18673409902406204,0.16557315759223223,0.14641070738461484,0.13308163628866726,0.12751281518603438,0.12941479827725783,0.1365492837019151,0.14544537420837617,0.15235378435000813,0.15419533789911813,0.1492750134836304,0.13759491255039397,0.12070567106467806,0.10117112475417336,0.08184293214904081,0.06518694238751763,0.052837990911351725,0.045426378856290014,0.0426109743207445,0.04323824729707637,0.04560665955967307,0.04786370911970279,0.048520356746203024,0.04694721399235921,0.04362235317265386,0.039937382081074016,0.03755057188793119,0.03751325234054628,0.03955902776992235,0.04193975882757332,0.041993710800848925,0.0372978564088559,0.02692888906160927,0.012218828605166845,-0.003438766701887859,-0.015744936488885336,-0.021151156350883306,-0.01828947960766747,-0.008540844292711474,0.004505802836112195,0.016459380576835846,0.023786920117127887,0.025031398933566176,0.02111117412639582,0.014644594491693225,0.00866242023872836,0.005294897756268756,0.00496770843870618,0.006376704836947188
11,-1.5604018353989312e-07,-2.61172672493976e-06,-2.1309921489778396e-05,-0.00011338231703527285,-0.00044421487321190384,-0.0013727359832126924,-0.0035018945021130497,-0.007625112995271121,-0.014549932222688666,-0.024867399294335638,-0.038776003842083066,-0.05601051204550665,-0.07582223481024164,-0.09692572065846242,-0.11742178865369826,-0.13484329064430367,-0.14649695840486515,-0.15012723072413808,-0.14469720392448743,-0.13093580710415983,-0.11134674156077201,-0.08959288218800787,-0.0694431118730401,-0.05366316634330773,-0.04326314464327173,-0.03737628706050913,-0.03380216115578216,-0.030001145138546986,-0.024162367884189816,-0.015934434181790944,-0.006522273593593662,0.0019070810312572135,0.007274423262508823,0.008636533104044006,0.006747120019308461,0.0038490461910628045,0.002760177221297876,0.005630868987259587,0.012899754293573647,0.022908632287466178,0.032391536683103864,0.0377131147285135,0.036414511906996724,0.028452676741177938,0.016572392664668485,0.005537085433087566,0.0003915520729904261,0.004383721469229077,0.017424486306556297,0.035841328213725196,0.05367019542139231,0.0650323453072238,0.06659366412216156,0.05899847081361432,0.046597958156871316,0.035574132553308116,0.031315815515254086,0.03624815357267987,0.049068023000108735,0.0656274720741172,0.08091764334021435,0.09114614738714874,0.09497371028841659,0.0934815038573201,0.08907347767480227,0.0839635351478771,0.0789893493558732,0.07325634589330454,0.06470105905040902,0.05126256189100466,0.03211134674020019,0.008376469120304215,-0.01697187006551225,-0.040060094228847425,-0.05747288127734404,-0.06744692632669963,-0.07039733743530499,-0.0685959096847819,-0.06517527375719302,-0.06286054126166678,-0.06288916605730684,-0.06450377960191943,-0.06522376903671921,-0.06184830018317049,-0.05187671730122821,-0.03484085893823317,-0.013010111669157526,0.008902766034714429,0.02506124332479899,0.030460079982437552,0.022813769773442082,0.0036296403412611027,-0.02201199436966528,-0.046957861254762305,-0.06424494898170119,-0.06930603406086167,-0.06132045235018811,-0.04325307503982452,-0.020635992791006988,0.00038639315096726523,0.01500176105666573,0.021013132806599243,0.01916143250052515,0.012608965246046986,0.005996735870989495,0.004537244750424579,0.013426708991019947,0.03757689453034719,0.081440838445911,0.14866291150434682,0.24143144237760092,0.3596454108252103,0.5001868188665718,0.6566308883125666,0.8196144342916085,0.9778607292814329,1.1196109172977464,1.2340517633548544,1.3123578848821613,1.3481944541824133,1.3378280622289376,1.2801676247057892,1.1769785447372532,1.0332398709624615,0.8573422765373719,0.6607407553825349,0.45683811008542596,0.25919545578584646,0.07947522416135022,-0.07432858925288727,-0.19887996329115243,-0.29543844630988886,-0.36876329164597105,-0.42528808822025754,-0.47108807092190585,-0.5102402320302672,-0.5440591680834745,-0.5713990401042395,-0.5898474209734369,-0.5973347307329212,-0.5935494527292794,-0.5806317788729437,-0.5628928310522295,-0.545672695623563,-0.5337605311772866,-0.5299338735354179,-0.5341038590425257,-0.5433363125251469,-0.552743356586971,-0.5569829261208411,-0.5519235574004963,-0.5359729028984307,-0.5106501845877798,-0.48019229495326193,-0.45027741994193715,-0.42625543125529775,-0.41148224749864315,-0.4063515427667271,-0.40836164255126195,-0.4131444626903206,-0.4160112696958765,-0.4134105223046859,-0.40379921080480974,-0.3877207325158014,-0.3672080602878307,-0.3448515816203533,-0.32291807030318564,-0.3027982980608165,-0.284875779008818,-0.26874386580574394,-0.2536144391502226,-0.2387601561157985,-0.22387331333844826,-0.20926842160301634,-0.19588684682666307,-0.1850837207928184,-0.17820658021119282,-0.17603558208702183,-0.17825057055735014,-0.18317424830979304,-0.1880259673892621,-0.18974477242551624,-0.1861455300257945,-0.17691883317137216,-0.16395708081199012,-0.1507507649810856,-0.14103352543269712,-0.1372279613484655,-0.1393484268660567,-0.14480039988682922,-0.1491171634472504,-0.14732078322472705,-0.13543712713028747,-0.11173027649103442,-0.07735527519274502,-0.03628232489318005,0.00550259194402794,0.04136762158456136,0.06568880772806733,0.07540063786144595,0.07101253059880804,0.056709905058283515,0.03934631191710149,0.026469874151811228,0.02392863805791976,0.03387961242930716,0.05399532269925453,0.07826913956184686,0.09921316829061388,0.1106774342771342,0.1102236465290709,0.10008264337894009,0.08621805462230928,0.07578057514297275,0.07398000113045178,0.08175614352839577,0.09534824043657994,0.10801814824093277,0.11317302761870147,0.10746588882027437,0.09245999822715678,0.07411411222843349,0.06034512680448507,0.0577730047498844,0.0690660898222141,0.09197806142548905,0.12039557077722376,0.1468610938581719,0.16545418210999463,0.17382455687879014,0.17358923272793433,0.1690443063428664,0.1648737175315859,0.16393606647028677,0.1661069932823637,0.16862190343773564,0.16767403005938844,0.16049567947702173,0.14699094374973926,0.13021465861751014,0.11547757596562772,0.10841053232452584,0.11274346942724675,0.12868791964942572,0.15258889283819518,0.17801275698293267,0.19786799868266527,0.20675794079987486,0.20269983572388678,0.18762019073433403,0.16651460148168695,0.1456402716427806,0.13041920057035414,0.12378537269780777,0.12551836208831763,0.13274233565074894,0.14134633230826213,0.14773790930777905,0.15021723552754498,0.14942807894442622,0.14775026851221923,0.1479604512272796,0.1517840580454704,0.15896159750650088,0.16718866161319662,0.17291990758493642,0.17272212553176816,0.16469857905810786,0.14947366533431214,0.1303093032912769,0.11216085979511278,0.09988806216936391,0.09628612774102939,0.10082543216647412,0.10976648991952871,0.11769263481960805,0.11979691794593202,0.11387151065188544,0.10109357650219174,0.08529056876586417,0.07108108739454305,0.061773070923233225,0.05795367805536186,0.05734092949146174,0.05588579862785563,0.04958767722969761,0.03623664041333743,0.01640074180063192,-0.006653204240461223,-0.027982043616644716,-0.042507680455509726,-0.04657402632078763,-0.03910670950142374,-0.022102802462646967,-0.00029396166942647836,0.02004356106233532,0.032926008868965975,0.034617516338777944,0.024953483511330914,0.0074002730998809635,-0.01227788060913708
12,-5.407333092966594e-08,-9.127938736921123e-07,-7.522776290667159e-06,-4.047151455888591e-05,-0.00016034836668682564,-0.0005003915026515733,-0.0012841701118530401,-0.002792723371503999,-0.005260365730582388,-0.008723788806824565,-0.012899032816006633,-0.01717430564271739,-0.020760057720438495,-0.022949982164426806,-0.02337291079485351,-0.022109595092257583,-0.0196187407868588,-0.016516996625593253,-0.013323631713875562,-0.010280689403249822,-0.007309498086753687,-0.004101886337561277,-0.0002969052322037147,0.0043289745726864575,0.009728642539100184,0.015556045186460782,0.021253419966959387,0.02622303241701389,0.030020632186241986,0.032499023549789376,0.033848634149454784,0.034519638686005875,0.0350511715810427,0.035863462894960674,0.03708140663502697,0.0384511731103014,0.03938553959558721,0.03913325284012498,0.03702399464953754,0.032709028404793346,0.026312167347069322,0.018431011325075793,0.009977007427297575,0.0018989011101834888,-0.005120244882665034,-0.010882603170431243,-0.015718991262875133,-0.020319162377449636,-0.025392990953234867,-0.031283589236487996,-0.037691404455578253,-0.0436440974024252,-0.0477623499480617,-0.04875395319298798,-0.04596117722537707,-0.0397372464863275,-0.03147062644261541,-0.023207495325540662,-0.01699209244058738,-0.014172735074649494,-0.01494453374665048,-0.01830583809801823,-0.022438528608904218,-0.02535775411324052,-0.025582725849767913,-0.022588640984502487,-0.01689812671542076,-0.009812755375487692,-0.002913669353681885,0.002471091905385743,0.005645515330341304,0.006660816357475617,0.006164075816379299,0.005071468897631123,0.004206109396089095,0.004032459187525198,0.004562490605566998,0.005429421425089032,0.006061242703189628,0.005870693576399233,0.004412387416203599,0.0015082141663196875,-0.002631995518455304,-0.00728222938202224,-0.011091696741735336,-0.012058227149308369,-0.007652873892228754,0.0048655369657551704,0.027965856318758395,0.0632742919816295,0.11104750335760616,0.16982291788286305,0.23633263419618594,0.30568245707457764,0.37172437354847787,0.42753924304311763,0.4659995442204646,0.4804490173613366,0.4655517755135692,0.41829104905475467,0.3389543477645234,0.23180271361338195,0.10508624622975554,-0.029806200985022235,-0.16001954466488486,-0.2734029586893338,-0.36066463648000924,-0.4169675602941615,-0.4425565012368033,-0.44225764102824217,-0.423989809571312,-0.3966886574693576,-0.36819648756957973,-0.34366405367056585,-0.32484678977670134,-0.3104069186305268,-0.29703891880305044,-0.2810091859199482,-0.259608904760872,-0.23208595666023996,-0.199819178852503,-0.1657562349129811,-0.13336872725375296,-0.1055137314045328,-0.08359289205937889,-0.06727359944975807,-0.05482739533840661,-0.043923025352014866,-0.03256240361026814,-0.019817004437978868,-0.00611436541507903,0.007000448460272639,0.017512288467016992,0.02373686589868544,0.024978446165068963,0.021814248134615816,0.015922542737975224,0.009542359623102532,0.0047820319352475105,0.003033008206232925,0.004683581536648006,0.009195278118171345,0.015460672891475916,0.02226538821348264,0.028665265017285398,0.03415864253732145,0.03864253862682476,0.042234517756141586,0.045078598780661505,0.047227901961246085,0.04863534473595486,0.0492246765859307,0.0489843531027369,0.04803117972658938,0.046616677563111726,0.045078431976040244,0.04375839714523438,0.042917258922258616,0.042671877037103685,0.042974770928765,0.04364163674689025,0.04441708670053615,0.04505557317517256,0.04538986204658036,0.04536577404543194,0.04503618154042286,0.044523000078269336,0.043966550327567605,0.04348295922310362,0.04314217082938621,0.042966613742931856,0.042941353646875846,0.04302550548888137,0.043159934854620496,0.043272210980261565,0.0432831924122807,0.043121135643860706,0.04274859503789416,0.042201001262215244,0.04162219002102399,0.04126944997894775,0.04146340483666736,0.042482591641868656,0.044437124293384186,0.047177616037632056,0.05028855942371929,0.053181591272641424,0.05526085574096532,0.05610141894236703,0.05557647710469801,0.053890708801489634,0.051513925671606293,0.04904416508306318,0.047049277913560617,0.045936592596683964,0.04588480976981031,0.04684811358742162,0.048618130891309064,0.05091311622404678,0.053460795701557554,0.05605111387239455,0.05855163460233836,0.06089351257929602,0.06304424843168917,0.06498395695479672,0.06669638136705147,0.06817602468477535,0.06944125156670972,0.0705365121564227,0.07151180506529145,0.07238325033926693,0.07309474695460993,0.07350548332385497,0.07341794851217211,0.07264183194222545,0.07107074920146499,0.06873976908793869,0.0658367080878508,0.06265794069686514,0.059523011749780905,0.05668089270394837,0.054244801627059774,0.052179426765413116,0.05034077411741002,0.04854749302128814,0.04665478939573583,0.04461004006178987,0.04248332703988909,0.04047213783780637,0.03887289787160703,0.03800527124809284,0.038086502147709284,0.039085445553048555,0.04061918506445063,0.04196076828197821,0.042191064015739285,0.04046395834126856,0.036294262263321796,0.029754554579487315,0.0214953557236773,0.01257080759124797,0.004128293433019535,-0.0029282365395721134,-0.008184762175048502,-0.011794386121024174,-0.014369920395603078,-0.01674124908011848,-0.019668937192993723,-0.02361188957649217,-0.028618392037666286,-0.03436024530290796,-0.04027919859588852,-0.04578183755552863,-0.05041289191558266,-0.053955942157776805,-0.05644431204860186,-0.05809884181654331,-0.059229981233632455,-0.06014330896213633,-0.061074046697975164,-0.06215745773502218,-0.06342773950968628,-0.06483259127395044,-0.06625315562906552,-0.06752562355878938,-0.06846693690768488,-0.06890873718910981,-0.06873897304723749,-0.06794153354405735,-0.06661735712455519,-0.06497225946938584,-0.06326856996020892,-0.061754120931383064,-0.06059432749320871,-0.05983390175154331,-0.059402611651627746,-0.05915965220144539,-0.05895366749268068,-0.058669932763490605,-0.05824601519579945,-0.05765655990282153,-0.05688477758238706,-0.05590217211807509,-0.054666996154412756,-0.05313465360883425,-0.05126418573094227,-0.04901278219112389,-0.04632881570024252,-0.04316544085831664,-0.039526995222101534,-0.035532195204126524,-0.03145190905537605,-0.027679038749306252,-0.02462150634395825,-0.022558160071506975,-0.021528379358768415,-0.021316478904722228,-0.021546106703194606,-0.021844365263627916,-0.022000617489644273,-0.022047833716902037
13,-2.317428468414254e-08,-3.9384586411766434e-07,-3.271044304872298e-06,-1.7757161519654842e-05,-7.111389772392091e-05,-0.00022483361710844455,-0.0005863176754410003,-0.0013006290093426544,-0.002510904464508983,-0.004293077068381222,-0.006591713541337243,-0.009193369264019794,-0.011761193303987677,-0.013923917773390129,-0.015382498581128749,-0.015988284267267384,-0.015763511692604548,-0.01486678004006087,-0.013533477154573818,-0.012027839904736201,-0.010624325786438106,-0.00960154430818637,-0.009206829831404416,-0.009560314374364236,-0.010520044651322722,-0.011593063242204028,-0.011995916736554958,-0.010906166986786403,-0.007828461522391571,-0.0029011476328235867,0.003034411661153532,0.008675889404693226,0.012732245077817112,0.014425741579681387,0.0138038816472328,0.011727995848996118,0.00954925158941669,0.008613103548355252,0.009794048828883477,0.013236876978437201,0.018388501756372713,0.024286173105656297,0.029967286764660154,0.03482069759017496,0.03872989000635462,0.0419547254875705,0.04481855502716976,0.04735608276256109,0.04909575716221094,0.04909391758693992,0.04623254979442712,0.039679865948749594,0.02933499947367712,0.01606657058540403,0.0016208119575739765,-0.011800753830681517,-0.02215973661168793,-0.028175354869197207,-0.02967802022480304,-0.027597232554372762,-0.023599955301586206,-0.01952458507900987,-0.016820049964897894,-0.01617847893581769,-0.01746032595040299,-0.019895988271983852,-0.022455009917067906,-0.024234300950883435,-0.024736756800126623,-0.02397369767247634,-0.02239622721794648,-0.020710428111035704,-0.019646105132541853,-0.01973884427846689,-0.0211700453556059,-0.023698586445922636,-0.026705024167382612,-0.029345695150407723,-0.03078121093034315,-0.030415308325823585,-0.028071572975565066,-0.024053301479121374,-0.019068637735637706,-0.014044468176564948,-0.009884880477951597,-0.007245869282316535,-0.0063942729330261645,-0.007192912986425605,-0.009206862483272297,-0.01187318122635422,-0.014647635366087665,-0.017058795324691678,-0.01865398331396836,-0.018877399308117365,-0.016945254001453677,-0.01176970946973108,-0.0019528586242118368,0.014148559488274029,0.0382820164408223,0.07205426045664752,0.11654840277589028,0.17180978208217113,0.23629761170707975,0.3064904134279639,0.3768496501784988,0.44024874992601143,0.4888101241327311,0.5149647208293374,0.5125282189392264,0.47765241018707505,0.4095746806804905,0.3110921826500142,0.1886467321593659,0.05189002200257928,-0.08734135555766759,-0.21658068210326534,-0.3246004278288926,-0.4032510209734108,-0.4488557172652645,-0.46277705380785616,-0.45092656289907684,-0.42226165775690605,-0.3866216367109479,-0.35247620141364366,-0.3251978116954958,-0.3063040627143127,-0.2938097100498441,-0.28349079645254666,-0.2706103307313435,-0.25156117362769576,-0.22495840975721332,-0.19191730064322562,-0.15551575761142516,-0.11968974534406471,-0.08797512780080786,-0.06253254144737455,-0.043757654956862055,-0.03053781314940985,-0.020969483451283154,-0.013202548380438408,-0.006078988220993415,0.0006357811909909212,0.006442890516633512,0.01057246490203266,0.012488740516092642,0.012226194539028018,0.010441516426035647,0.008194164213344882,0.006573798972095384,0.0063375064575991215,0.0076947068488162846,0.01030355133818132,0.013455600341861391,0.016360340567329632,0.018418090055367414,0.01939048520211561,0.019427135816237014,0.01896220249961614,0.018534998421136668,0.018603782202484438,0.019412623497926506,0.020945553972765256,0.022970079151726497,0.0251431020720442,0.02713493649042844,0.028726849732690116,0.029853806063030487,0.030588964852286002,0.031088391909417104,0.031524261571713265,0.032031027192649955,0.032677365314458744,0.03346484580746348,0.034346505115542256,0.03525483111920677,0.03612793493534516,0.0369248192657378,0.03762588148946911,0.03822176558048424,0.038699383929396744,0.03903539845826487,0.03920346300121255,0.03919339568346899,0.03903198740084428,0.038791450308916904,0.03857603500384246,0.038488875114167556,0.0385933307002609,0.03888812079660477,0.03930952677726258,0.03976034318906111,0.04015229530778306,0.04044325696441686,0.04065428064697275,0.04086098484756915,0.04116446865656354,0.04165446942699321,0.04237907859866638,0.04333047533613452,0.04444798243227511,0.045633659650781436,0.04677457711344857,0.04776781048089479,0.048545122423976565,0.04909305367724638,0.04946291477567705,0.04976658100180491,0.05015851542834867,0.05080937501732908,0.051877272235632606,0.053477455594101664,0.055645350983797956,0.05829090473598304,0.061156334059763576,0.06380461321656666,0.06566764866786558,0.0661650920805316,0.06487471590153975,0.06170800520039073,0.05703185243085588,0.051683008018377725,0.046845023721842904,0.04379470215614024,0.04357004534778506,0.046651040558828114,0.05276000568381531,0.06086547759230975,0.06941315247035762,0.07672805122977555,0.08146527740904186,0.08296237790545742,0.08137750851349204,0.07757289631552103,0.07279176139084693,0.06824429025861706,0.06474161627707026,0.06249203609534401,0.06111301096543567,0.05983767944293239,0.05783090324081919,0.05449890050844745,0.049688030681759046,0.04371542469669701,0.03723688003201887,0.031012451573068728,0.02566040703917926,0.02148851819216715,0.018459097910413634,0.016289144730614945,0.014627939576995385,0.013218992148709613,0.011963957626881924,0.010861821581406894,0.009868066132894093,0.008765531950208074,0.0071347253733870675,0.004458333011325644,0.00032140389961541824,-0.005385508071141318,-0.012359616775957916,-0.019932199436604854,-0.027256167615270686,-0.0335633897598427,-0.038394644538528144,-0.041720224034702914,-0.04391398222574225,-0.04559784374697752,-0.047417320074298566,-0.0498276109189314,-0.05296018476792757,-0.0566072949810658,-0.0603199065604279,-0.06357778218238297,-0.06597020659865321,-0.06732707682233072,-0.06776120162256555,-0.06761568241073676,-0.06734292583483067,-0.06736211248370855,-0.06794351168815282,-0.06915289841815439,-0.0708653744802721,-0.0728343258956996,-0.0747855430201682,-0.07650276371465688,-0.07787842126003848,-0.07891748705099412,-0.07969770284655268,-0.0803031171348185,-0.08075767344979856,-0.08098803679886392,-0.08083561390588179,-0.08011710589322595,-0.0787094839851425,-0.07662200992161208,-0.07402262730846028,-0.07120513179748043,-0.06850588176244002,-0.0661951985032547,-0.06437647313109168,-0.06292631919424214
14,7.724761561380848e-09,1.173773838954026e-07,8.540405831535012e-07,3.96878687545978e-06,1.3258841838064552e-05,3.397493157749754e-05,6.945178367286646e-05,0.00011563947479490544,0.00015624584700656244,0.00016099218274714572,8.915651670223434e-05,-9.656268708382224e-05,-0.0003990712165541058,-0.000741444224731221,-0.0009305656640958794,-0.0006675508591200749,0.0003711514911757003,0.0023997754811766353,0.005397029089817672,0.00906005482611977,0.012879766387657022,0.016320783417749094,0.019035063923301586,0.021014839164320287,0.022609714233092642,0.024388690431955642,0.026896951314105678,0.030407311016128785,0.03477198336090834,0.03943737817745294,0.043612918371907436,0.04651958320044277,0.04761673436378161,0.04672678743864629,0.04403035613143823,0.039959854572847585,0.035051693550909986,0.029816010479876538,0.024655257898245783,0.01982817339848135,0.01543519509533036,0.01140608140475603,0.007492926476516471,0.003292370440018578,-0.0016771554577296585,-0.007837533937833843,-0.015380271381498738,-0.02412122064888719,-0.03344846438585173,-0.04240869140961016,-0.04992688466249213,-0.0550959686003073,-0.05743488597186786,-0.05701591050491859,-0.05440830154509051,-0.05045942520056372,-0.04600422507589591,-0.04162439904198391,-0.03755176343636628,-0.033738937226521805,-0.030042244935762845,-0.026415773668138375,-0.023020742403938758,-0.020202921556838404,-0.01835638304235726,-0.017743640959569113,-0.018358412312001932,-0.019893331425207966,-0.021825034891630603,-0.023578079297437774,-0.024700106970891134,-0.024983269395307435,-0.02449466408822068,-0.023515267904392016,-0.02241804648128349,-0.021535466851854604,-0.021072424408784266,-0.021106174926704854,-0.02167350880827993,-0.022887522598124873,-0.024986884079099856,-0.028237590044144015,-0.03268633899401838,-0.03786311127099908,-0.0425825213429564,-0.044959219300651845,-0.042650625182754316,-0.033234429498339456,-0.014582283512449765,0.01487262307687628,0.05598752826200393,0.10881247006205981,0.17244635440512246,0.244790606321322,0.3222338338456888,0.39940139517767,0.4691673319400828,0.5231116154412694,0.5525041408967886,0.5497384160545201,0.5099687929208081,0.43256880214360327,0.3219707008979109,0.18751914612771975,0.04219929800754485,-0.09956714588048146,-0.22454872579333088,-0.32308105503713436,-0.3905789321614105,-0.4278216808544546,-0.4400016885347866,-0.43486333568331775,-0.42048801157915666,-0.4033441221713963,-0.38710501497493044,-0.3724754943170545,-0.3579384557218602,-0.3410466277898689,-0.319744085887516,-0.29326025032994196,-0.2623439711489767,-0.22889024555947235,-0.1952296020409905,-0.16341910114451233,-0.13479363623953994,-0.10987173432388939,-0.08854787069434429,-0.07040905250785263,-0.0550098781804131,-0.04200797060619925,-0.031155027792012444,-0.022209631777367067,-0.014858130180924738,-0.008701538136414083,-0.00331515876918617,0.001655806034177771,0.006417517197812252,0.011005101445916581,0.015325015833519995,0.01923966710471213,0.022655142472033866,0.025575290416944486,0.028102817886272922,0.030391971128996248,0.032577748730941554,0.0347147452509968,0.03675088326083381,0.03854136768064871,0.03988712882422911,0.04057313794671214,0.040392454744438894,0.039164508410629274,0.03677118327014653,0.03322492904553772,0.028751877991760252,0.023842297539389185,0.019216204445351992,0.015682797140744022,0.013924291041954272,0.01427932072894689,0.016613260377496913,0.020334749058126253,0.0245615211705676,0.028379476095814992,0.031102969264121462,0.0324467248633936,0.032557640780016946,0.0319092279741343,0.031108382531102468,0.030686817393609716,0.03094443282439082,0.0318864885749508,0.03326207780083375,0.034679194098026306,0.03575047296224208,0.036218489608751875,0.03602053899424018,0.0352764390378979,0.03421255145679124,0.03306091782516371,0.03198194397285033,0.031045114507566942,0.030270292087827867,0.02969936910681819,0.02945219803270529,0.029729589680389145,0.030754414147184717,0.03267493711129572,0.03547594332147927,0.038942387825561885,0.042697960950250996,0.04630811554474438,0.049409208379343796,0.05181514260149169,0.053564479416104746,0.05489755716813729,0.05618039533344802,0.05780717008653476,0.06011126998707068,0.06330077273650175,0.06741806320276834,0.07231658853561997,0.0776545085810711,0.08291708150149031,0.0874829274936732,0.09073693513921505,0.09221085797247605,0.09171464382963615,0.08941653732538005,0.08583969514837535,0.08176472917818862,0.07805694352132853,0.07546637683667477,0.07446471976389499,0.07517207245969709,0.07738773106406088,0.08069262520875387,0.08456549530860247,0.08846546034022287,0.09186970579993672,0.09428985224549474,0.09530159182047454,0.09460524886412641,0.09210401644670577,0.0879626952396078,0.08260773311872077,0.07665074521421256,0.07075117376817243,0.06546187964598195,0.06110993023433256,0.057750031520433204,0.055198494047838984,0.05312629634797827,0.051173232806425425,0.04904553602257955,0.04657271947480014,0.04371748474891265,0.04054764147457796,0.03718682097454467,0.03376118075614059,0.030354898129515688,0.026981223263809473,0.023570769994137115,0.019976255963011086,0.015993062088976943,0.01139537465277931,0.005985371865495255,-0.00035221692669284814,-0.007602620332424679,-0.015594015847951136,-0.024000810013454645,-0.03238051140327883,-0.04024020501506517,-0.04712183191122562,-0.05268996789313206,-0.05680262476010558,-0.05954603836223637,-0.061219543736549774,-0.062267076129259136,-0.06316693631110319,-0.06430775396083067,-0.06588921769464778,-0.06788355907814558,-0.07007489416444969,-0.07216363262377773,-0.07389514156281352,-0.07516007871401745,-0.07602593118097861,-0.07669098267735043,-0.07738800705682924,-0.0782868316050227,-0.07944101745807704,-0.08079726916986257,-0.0822525359563234,-0.08372133752815361,-0.08517477890526384,-0.08663121657648343,-0.08810598356371861,-0.08955041174495275,-0.09081769135157194,-0.09168101238015045,-0.09190304590769094,-0.09132701865239862,-0.0899420327478073,-0.08787975184073343,-0.08532988248995163,-0.08240854754397572,-0.07905189212712542,-0.07500881676245437,-0.06996165048787034,-0.0637325330628115,-0.056476756816622134,-0.048756640324993994,-0.04143782050888361,-0.03543125394942822,-0.031379218144871296,-0.029415964579932435,-0.02910722866905968,-0.029598848247135143,-0.02991682714764664,-0.029299169853500933
15,-2.935409393324722e-08,-4.926916186332703e-07,-4.0321174131577636e-06,-2.1513555594186542e-05,-8.444073593486022e-05,-0.0002608170388861946,-0.0006620856991392033,-0.001423685719326662,-0.0026508388467582525,-0.004344302785778052,-0.006343925681364833,-0.008332101756394088,-0.009915922198547797,-0.01076584687100987,-0.010753742398379567,-0.010025850003817796,-0.008971810444150213,-0.008095590843082725,-0.007835717248222601,-0.00840277460492437,-0.00969533258088517,-0.011325821729753195,-0.012746708423162537,-0.01342916088282712,-0.01302646867187074,-0.01146339028716166,-0.008927859877189631,-0.00578397231081417,-0.002450448264664595,0.0007130949788003568,0.003487110422387347,0.00582974004611502,0.007865871667164723,0.009827213020041605,0.011955517153307086,0.014398015023520809,0.017133434977867283,0.019959765786721713,0.022552715899587874,0.02457735730914674,0.02581708270002271,0.02627928690273117,0.026242093145921578,0.026214595787330822,0.026796445356773044,0.028451313260680337,0.031255219406923856,0.03472405250262682,0.03782817615521997,0.03924301413607953,0.03777956586522934,0.03284029754226262,0.024710529260392133,0.01454880376293826,0.0040604167578023286,-0.005029655370814847,-0.01150543936115053,-0.014993809792392686,-0.01599118500527935,-0.01559673883578183,-0.015076981855355227,-0.015436349570977927,-0.01714219971135113,-0.020072331865219787,-0.02366160524904667,-0.027160186379069508,-0.029896456642933576,-0.03145688167554847,-0.03173682844750658,-0.03086614713843538,-0.02906045683103904,-0.026479194660832622,-0.023167597843367582,-0.019116057591312532,-0.014404314210760811,-0.009345097957286625,-0.004533556050211596,-0.0007519850230973627,0.0012484744401261819,0.0010041496275779434,-0.0014753610075887175,-0.005674384617895747,-0.010711786985795814,-0.015605437993444144,-0.019563230890390575,-0.022197277675049285,-0.02359366887930611,-0.024228653147979756,-0.02477436103795402,-0.02586081154355917,-0.027853306943165054,-0.030681513861985175,-0.03373745220264441,-0.03585164033032591,-0.035355104906105154,-0.0302307730482489,-0.018344005882045926,0.0022795380067300135,0.0331754647269596,0.0752000975144064,0.12833668144993854,0.19153002411987546,0.26252924218340834,0.3377432150875692,0.4121504794506274,0.47933903757229857,0.5317735658100904,0.5613916634368357,0.5605989359352035,0.5236337871350102,0.4480988042362991,0.3362665891870723,0.1956791347168459,0.038661007502340666,-0.1193510392742407,-0.2623982139494737,-0.3769375731091348,-0.45440262600590314,-0.4927138595179529,-0.496319268942824,-0.4747371749738686,-0.439991612100754,-0.4036392099835058,-0.37418206451911046,-0.3555160591330079,-0.3467351964393779,-0.34321311842100594,-0.33853939545806705,-0.326697072750551,-0.303867845877455,-0.2694182682940018,-0.2258885058286929,-0.17809339526281115,-0.13167775795104936,-0.09158608013141105,-0.06088477342991758,-0.040229324751346024,-0.028052914190619373,-0.021339160531592523,-0.016691502645341808,-0.01135923793570933,-0.003928294612103176,0.0054886823289471524,0.015563541884095304,0.024412503393008655,0.030356852076067146,0.03252714678280834,0.03112862965192207,0.027314786499596466,0.02275179233976184,0.019051956731636427,0.01728036936516082,0.01769349148964611,0.01977363142573827,0.022515783657175898,0.02484118309245481,0.025981514547952958,0.02570505350723247,0.02432567223564777,0.022518176630948575,0.021028012228173906,0.02038953697042628,0.02075057008992361,0.021852691905309706,0.02315707968673351,0.02405657523087363,0.02409241072400132,0.023103197888862254,0.02126619267283188,0.019030540335023594,0.01697442340318887,0.015635310649376608,0.015364165506700476,0.016242891161271367,0.018083297020701026,0.020501406596977252,0.0230402594102593,0.02530318040204301,0.02705970352555658,0.028296313459830275,0.029200563844641758,0.030086181324738073,0.03128397268806471,0.03303325744926504,0.035407117416352024,0.0382926639416583,0.041429794397579725,0.04449413018003039,0.04719623246958325,0.049363875642951104,0.05098055229491335,0.052170379194571355,0.05313989586009732,0.054101721406382704,0.05520835769955948,0.05651692293520882,0.057991462927208366,0.05953472801031248,0.061031853504010275,0.06238756121204555,0.06354519610153592,0.0644855295117604,0.06521109273382558,0.06572596827055176,0.06602212063657127,0.06608180058844981,0.06589988795408058,0.06551987360128678,0.06506655568856616,0.06475445944160657,0.06485808099254363,0.06564662155260131,0.06730415585736549,0.06986591920713098,0.07319628924184672,0.07701710388832211,0.08097628672280605,0.08473475013375308,0.08804571840550053,0.09080264976946592,0.09303888872977699,0.09487502284632274,0.09642809676308373,0.09771514737758577,0.09859279779465466,0.09876707528864312,0.09788315237667239,0.09567223842536876,0.09210487076492531,0.0874870400014728,0.08244542457855085,0.07778302212106661,0.07423860096677123,0.0722314965252972,0.0716915227569959,0.07204763447316022,0.07238670164421676,0.07172417667926428,0.06928530226698373,0.06469809353701371,0.05804308039902066,0.049767429237892444,0.040525133384994694,0.031026722025457622,0.021958850714743426,0.013975428094990524,0.0077021109866721,0.0036776293997627368,0.002197808853171449,0.003108437865484666,0.005658743455808024,0.008531661402351766,0.010100622225536527,0.008857423299674885,0.0038661278013103536,-0.004929895223150939,-0.01667188780390684,-0.02984173824806529,-0.042720223466108,-0.05388431804859005,-0.06257156919728099,-0.0687947185194033,-0.07318538975715064,-0.07664491129980466,-0.07994617162627737,-0.08343898637418445,-0.08696141977614422,-0.08997254578558127,-0.09183419142610558,-0.09211574811587664,-0.09079725556815331,-0.08829755386652123,-0.0853304154615034,-0.08265781118997774,-0.08084015398977336,-0.08007233360980863,-0.08015377580119994,-0.08059081437971835,-0.08078760293184976,-0.080257463185885,-0.07878411643399968,-0.07648190853534521,-0.07374060447344978,-0.07108115710767425,-0.06897816635391198,-0.06771139277125397,-0.0672923485897098,-0.06748214660675593,-0.06788618015549935,-0.06808925369301008,-0.06778515357592554,-0.06685727581576084,-0.06538150543954352,-0.06354899998886374,-0.06154034325983246,-0.05941005450871123,-0.05704342526356365,-0.054217227168398385,-0.05074313794285791,-0.04662515216338614,-0.04214743510537673
16,-7.57026633015323e-08,-1.2896530607422557e-06,-1.0734834273173979e-05,-5.8384174280390685e-05,-0.00023413185596301469,-0.0007407050273633875,-0.001931157583825357,-0.004278507614746833,-0.00823909726708582,-0.014028100644906505,-0.021395018233610966,-0.029520268392087545,-0.03712119693174196,-0.042767723076642006,-0.0453084352224676,-0.04424805327435614,-0.03992708575140026,-0.03342968372487835,-0.0262512144689665,-0.019846855743549434,-0.015221113558488646,-0.012694242922722473,-0.011909462428831499,-0.01205615746557586,-0.012212967270770451,-0.011683536608919,-0.01021271105956365,-0.008022838152955623,-0.005678209213237606,-0.0038448334702282597,-0.0030414069880598475,-0.003468101225939821,-0.004960810867123643,-0.007067499888717707,-0.009200100831508816,-0.010795944979137988,-0.01143289711591083,-0.010874499851120966,-0.009057576061181037,-0.006056896711379911,-0.0020612353523443445,0.0026235423861705968,0.0075540717542925215,0.012142049879296901,0.015697668487095903,0.017550011194974485,0.017236197148179137,0.014702756955792361,0.010426095310036918,0.005366528497639522,0.000735473342121179,-0.0023489997595994676,-0.0031737257509697973,-0.0015703692907474238,0.0021697035442372376,0.0075409905163864146,0.014084760037539536,0.021525227919875177,0.029725153453380865,0.03851401144933411,0.047511386122157495,0.05606334581470206,0.06334001813610171,0.06855136359467401,0.07117533166836021,0.07108834143259564,0.06853857463294682,0.06397741731462918,0.057827600042390494,0.05029399592165761,0.04130628674708669,0.030627540715855887,0.01808933185110969,0.003853902134783479,-0.01141403661222467,-0.026549970540753566,-0.040082577506813835,-0.050560360855127606,-0.05690705028832602,-0.0586922829275526,-0.05623394617263063,-0.05050350933103317,-0.04286682539433715,-0.03474173785152452,-0.027276100856052442,-0.021138682981858628,-0.016474266671200534,-0.013017122526234215,-0.010304607920479398,-0.007904141237599253,-0.005571749944135673,-0.0032949238663511245,-0.0012218648272784441,0.0004760725536330887,0.0017391037797476689,0.0026887537345009743,0.0036041161169248458,0.0048201704206413945,0.006597699220402141,0.009023232207027929,0.011979039761821214,0.015188421054311587,0.01830702787431828,0.021010962301253152,0.0230356478680764,0.024148206186361123,0.024080585896578265,0.02248574842436459,0.018976762756360836,0.013264101405415406,0.005349368923621402,-0.004296514410362072,-0.014632914772826393,-0.02405870699059763,-0.030536095682092174,-0.031816058389455455,-0.02573455255324648,-0.010526958642585543,0.014906725879420709,0.050844359469973927,0.09671109693292022,0.15114378929412745,0.21208521427297283,0.2768431236608527,0.3420735953857742,0.40368720604323266,0.4567356595458239,0.49541431408552117,0.5133715544745476,0.5044808142902365,0.46407040795662624,0.3903687967562026,0.28572533251974563,0.15712325581851666,0.015655501260740223,-0.12506524024501794,-0.2512546470320375,-0.3515042262009251,-0.4188850554616698,-0.45206958999249003,-0.4551895992226169,-0.4364779058302808,-0.40605403516193894,-0.37343111918739025,-0.34539107737051566,-0.324775594768455,-0.3104864689513523,-0.29863771369171843,-0.2844501188175303,-0.264242545674672,-0.23684874991512253,-0.2040022302882038,-0.16961622579109964,-0.13829362354293337,-0.11366869993318746,-0.09720684779198402,-0.08787289035668941,-0.08272324918500586,-0.07812914401671522,-0.07112897472816108,-0.060405343028723996,-0.04656801361001879,-0.03171000007122503,-0.018472482575059734,-0.009007838931989476,-0.004225173293444483,-0.0035589597898216772,-0.005286652789184754,-0.0072211455444028926,-0.007489220838777807,-0.005109226599553344,-0.00018639630542297263,0.006296518210714463,0.012965801540667763,0.018606763608637573,0.02256686484052029,0.024884871438316077,0.02614114768839693,0.02713202899850645,0.028522587079994166,0.030614171148349325,0.033294505841709204,0.03615539937369906,0.03870149967590905,0.04055315753044741,0.04156786410873442,0.04185177769453075,0.041681274641276085,0.041383859828452246,0.04123057745749648,0.04137387604410865,0.0418383525569644,0.04254996468745379,0.043380624602752986,0.04419004667627705,0.04485803622436014,0.045308599110653235,0.04552769740556355,0.04557182840552689,0.04556118704606584,0.045653405485370786,0.04600132482195923,0.04670665901586443,0.04778582893312891,0.04916209456243002,0.05069025776631054,0.05220974104645751,0.053611844842344485,0.0548993233729365,0.05621251539289785,0.057798667563913594,0.05991380792077922,0.06267172552248129,0.06588640495129987,0.06897700604882331,0.07100139781972443,0.07084961956095401,0.06757149187821389,0.06075162799988431,0.050803055730428044,0.03904970348504757,0.02752042855098903,0.018473530475804793,0.013776868626138035,0.01434081530656537,0.01980694719117426,0.02862647921905761,0.038535861077301024,0.04729181202111344,0.053418885513793646,0.056699765066700304,0.058220753528688114,0.059945016071802026,0.06396105674870017,0.07167388772595745,0.08322575775411474,0.09734828028896346,0.111693853555045,0.12352866943782648,0.1305496164025053,0.13155223401478489,0.12673642853794415,0.11756813794183099,0.1062700010750875,0.09513511366112232,0.08590166300107409,0.07938098748980843,0.07542194436968905,0.07316887653991923,0.07147869882370733,0.06933411347134148,0.06612395621531102,0.061732781397183245,0.05645596083699035,0.05080738950405482,0.045304102476445965,0.04030025636042369,0.03591385078563303,0.03205465303502673,0.028528670595347347,0.02516907914702908,0.021933299666748098,0.018918687009542287,0.016285502924725536,0.014122401575705178,0.012323427930245486,0.010546392167756225,0.008286745178814501,0.005045499563830817,0.0005226558771093265,-0.005247348977526746,-0.01187814106392305,-0.018742276922217124,-0.02516832443185371,-0.03064894103055598,-0.034983939282925106,-0.03831177150616215,-0.04102755091115375,-0.04362612278110889,-0.046530408934625254,-0.04996369330314133,-0.05390357153134066,-0.05812382347768551,-0.062299733931251204,-0.06613312632545951,-0.06945155747090828,-0.0722501018745453,-0.07466646495584159,-0.0769024183752982,-0.0791209623525215,-0.08135610014104257,-0.08346870504821369,-0.08516694675443436,-0.08608659281498181,-0.08590464177126825,-0.08444969166024274,-0.08177730409223566,-0.0781920469909915,-0.07421129775713042,-0.0704760889947646,-0.06762375056623568
17,3.089904624552339e-09,6.796230500511694e-08,7.110627685596255e-07,4.742919343608838e-06,2.279422900125143e-05,8.454270483861882e-05,0.0002530043098604674,0.0006302800101393715,0.0013370365878146166,0.0024549912613804382,0.003943841108861295,0.0055695015635654314,0.006891054197634598,0.007339071152117857,0.0063822370462730755,0.003737292623831807,-0.00045317376915692334,-0.005554643443081957,-0.01053547699584751,-0.014212993105992767,-0.015577490562258194,-0.014083600093571553,-0.009807298134299307,-0.0034176071291946823,0.004020391427221754,0.011339487962077337,0.017565899931020545,0.022132296872810354,0.02496038669640622,0.02641018072960449,0.02713051564781427,0.027864543544698264,0.029262115973554555,0.03173359130092712,0.035358278397451925,0.03984858475713492,0.044572817979553446,0.04864619262776381,0.051094773145201,0.05107359703969061,0.04808838410692433,0.042151278462511134,0.03381167217160093,0.024043458313679086,0.01402270973225326,0.004869393260819813,-0.0025663461589936036,-0.007821184692541162,-0.010833456333720721,-0.011888810471229501,-0.011540893512721037,-0.010534578265545769,-0.00972944647964229,-0.009998927369796688,-0.012082682670551794,-0.016400359014867052,-0.02287840901697048,-0.03086957692711302,-0.03923258233905483,-0.04658530289301675,-0.05167155062012215,-0.05372484908966131,-0.052700725666840156,-0.04928942953246042,-0.04469826718031992,-0.04027618392033444,-0.0371096734964942,-0.03572656531492322,-0.03600083686293818,-0.037275897176197906,-0.03864628336689342,-0.03928763741348414,-0.03871846505830607,-0.036912660380166856,-0.03424195512537102,-0.031288380006746476,-0.0286073570933324,-0.026530751672687564,-0.025077089326266868,-0.0239946436607532,-0.022918109760035943,-0.021584096536924283,-0.02003072008067272,-0.018703204817056417,-0.018402162930813183,-0.0200478858146709,-0.0242921374675302,-0.031075284144286702,-0.039273993815315184,-0.04658330425090128,-0.04971368067868814,-0.044880350492574175,-0.028470192542900973,0.0022641609564452783,0.04861225682099704,0.11000500232690534,0.1838630397724779,0.26571978669129936,0.3495920187739593,0.42851134286876297,0.495104683790375,0.5421491554596857,0.5631108140776189,0.5527503003635535,0.5078728212298774,0.4281863952575852,0.31705981109872183,0.18185004036826752,0.03349533152914011,-0.11474110076236398,-0.24922007781352395,-0.35817348076969574,-0.4337366390849148,-0.473280211737203,-0.47970425634940583,-0.46058513399329626,-0.4263287478649296,-0.387734782439131,-0.35355928621496435,-0.32871157682785573,-0.3135861894896829,-0.3047161304417392,-0.29652270635989775,-0.28357240630240255,-0.2625781785214059,-0.23348136904100286,-0.19929426977101838,-0.16484170440131332,-0.13493340093855122,-0.11267454101636643,-0.09852048372809047,-0.09035910476817671,-0.08450098991665313,-0.07713453217214092,-0.06567498433435955,-0.04953360870529208,-0.0300966106294058,-0.010016532752613182,0.00784345943360721,0.02139096411378199,0.029875325649466107,0.03390747410917004,0.035004826723751485,0.03489599794205277,0.034874353877496336,0.035434077177713214,0.03628750130938392,0.03670343411834409,0.035985821066504955,0.03387581307465473,0.030716015963329336,0.02733153309231557,0.024703970239977554,0.023591095240204567,0.02425043888125121,0.02636643877561242,0.02919003530551475,0.03181787115322031,0.033496281706289266,0.033842373661619324,0.03291892997093626,0.03115860498630481,0.029183065383580824,0.02758955243965268,0.026776672534770972,0.026858529811837128,0.027682744010534534,0.028934952834848954,0.03028804158856315,0.03154292622103699,0.032711931672510054,0.034016102112733655,0.03579886416876648,0.038388424358848566,0.04195719665224719,0.04642272581245722,0.05141609479245759,0.056322814303220795,0.06038815297926703,0.06287413153262955,0.06324903435044267,0.0613737464822289,0.05762845695796889,0.052917350761607855,0.04851357539802545,0.0457594021498231,0.04569614761918048,0.04873806255455417,0.05450442001799416,0.06188027071227589,0.06930206213163902,0.07518637947934709,0.0783688203160314,0.07841589370149771,0.07571644818664704,0.07133181247300052,0.06665832537328227,0.06300897118618129,0.061239746029804525,0.06152914365245382,0.06337184256583711,0.0657823280089444,0.06763800831198022,0.06804568023409005,0.0666096807109562,0.06352145344038784,0.05946257325280318,0.05538167007293657,0.05223678827623854,0.05077950199678727,0.05141610460973143,0.054146057358063236,0.058566434887082394,0.06393775515983487,0.06931278971413207,0.07372157235565686,0.07638322276333502,0.07689173265584287,0.07531535020623839,0.07216723419058224,0.06824531319070377,0.06438697064274689,0.0612192959718357,0.0589913116177999,0.057545309151691565,0.056430977809592886,0.05511217538081485,0.05318640782200078,0.05054169763348136,0.04740546113992689,0.04427679272027886,0.041764859270188144,0.04038016733445259,0.04034190679063839,0.04146698028158404,0.04318716477641645,0.044701365695365286,0.04522224473475554,0.0442374184773291,0.041690378392719184,0.038005822664824496,0.03393798796176115,0.03029139051874105,0.02761961622496971,0.026020322976915655,0.02510559297577911,0.024155038098005975,0.022387878863526414,0.019248574808453923,0.01460143922378308,0.008768427111831845,0.0024036546673773824,-0.0037439927308558652,-0.009091698638692199,-0.013413074692927499,-0.016891503051692958,-0.020021481187720798,-0.023400921246291197,-0.027498930037087248,-0.032490360219848344,-0.03821650090079962,-0.044275045999766185,-0.05018799249755646,-0.055568183963754354,-0.060215396503098054,-0.06411397692944745,-0.06735377171630101,-0.07002876816292478,-0.07216851816170816,-0.07372964460808923,-0.07463750622910899,-0.0748433177755038,-0.07436126579656316,-0.07326936384436222,-0.07168219371532178,-0.06971810984848381,-0.06748133030757711,-0.06506573471326024,-0.06257419203035447,-0.06014290738050307,-0.05796133398538327,-0.05627635956645713,-0.055365279108945835,-0.05546683043697989,-0.05668051018647888,-0.05887177953985826,-0.06163389089409501,-0.0643422637386253,-0.06629961561122105,-0.06692910468354368,-0.06594924058052318,-0.06346815846462546,-0.05996229542335952,-0.05614320200482439,-0.052752397155345986,-0.0503473306137556,-0.04914557189417583,-0.048977459842293174,-0.04936288900634448,-0.04968549773918341,-0.049402585369485254
18,7.724761561380848e-09,1.4827643014092598e-07,1.4038876389734722e-06,8.737921918516813e-06,4.0203305329086126e-05,0.00014581998703531437,0.00043430761859735844,0.0010926318559297801,0.002370075766253549,0.004500199771262315,0.007561296239211342,0.011321797422646981,0.015155388054267693,0.018109928111243297,0.019159940834670004,0.017581484294025975,0.013306005577104454,0.00708674364905953,0.0003724098715448248,-0.005093012121360237,-0.00779975373235781,-0.006925192302682501,-0.002538286417492033,0.004507368211918847,0.012924825343747788,0.021429818273933168,0.02908350361667987,0.03542261871728262,0.040364329000943,0.04397805195407012,0.04626995011576629,0.04710051894268078,0.046266379716809074,0.043677055812323645,0.039505736143874155,0.03421644625138893,0.02844709773056609,0.022808113862950764,0.01769553309230594,0.013201909824334983,0.009155361722875979,0.0052589658103275125,0.0012666036593847428,-0.0028732668121845724,-0.00695570215088195,-0.010560728694597881,-0.013189681622016211,-0.014458252693095149,-0.014283265162116622,-0.01299140275000959,-0.011296125856203045,-0.010133166302218251,-0.01039919830227309,-0.012678643890483012,-0.017051922390924134,-0.02305173292820062,-0.029783985752348453,-0.03617579956202245,-0.04127218184700332,-0.04448734556578715,-0.04573117611365192,-0.04537362584071786,-0.044067432105778855,-0.04250116879404975,-0.04117777144376302,-0.040296926309979955,-0.03977075906821398,-0.03934484115663131,-0.03875755826799668,-0.037866051331982176,-0.036693850923995096,-0.03539699365775885,-0.03418050914166237,-0.033211052578760246,-0.032562451786185574,-0.03220873917990189,-0.03205739225502142,-0.032003963217821875,-0.03199055328772221,-0.03205809137306148,-0.03238251902739305,-0.033269223584861424,-0.03506128918684561,-0.037926810547773186,-0.04154688930636809,-0.04480473760311709,-0.045622488508011025,-0.04106543400090108,-0.027741847395520706,-0.0024204952251901807,0.03727874201968615,0.09227069286940297,0.16157372014375782,0.24210695776802155,0.3287115243390491,0.4143761373436138,0.4906726929941072,0.5484463616805929,0.5788088356195267,0.57441663685194,0.5308852539150186,0.44804567753723656,0.33066874289487924,0.18833024323809344,0.03428038948547976,-0.11654328190195,-0.2499653720582394,-0.3549482225090176,-0.425362874543261,-0.46075771529754217,-0.46594758627120164,-0.4495131329163592,-0.4215659022775551,-0.3913358464633953,-0.3652071851485941,-0.34572132755170737,-0.3317861263214724,-0.3199486513994967,-0.30623248468548364,-0.28785585259672847,-0.26422490832624673,-0.2369139246876892,-0.2087634889051184,-0.1825650909067837,-0.15991799814369492,-0.1407116686457148,-0.1233842818295526,-0.10577830895003154,-0.08619365991737123,-0.06420043998787622,-0.04090690341033543,-0.01861125204107171,-1.6122945116978094e-06,0.012777513972938543,0.018848102507555635,0.018866230698426408,0.014769349005249519,0.009126742479606894,0.004345855594247147,0.0020145318789550858,0.0025836856026366616,0.005454195131237176,0.009384612426453904,0.013037400878781311,0.015460796525320609,0.01635734614568277,0.016087236050813886,0.015452404602862383,0.015371826759650604,0.016573900927941913,0.019402502828384984,0.023776376996450375,0.02928075246620907,0.03532816819041614,0.04131659557992935,0.04673593262237524,0.0512124535044821,0.05451239102500105,0.05653500976682608,0.05731177057295156,0.057004682378006655,0.0558822237630378,0.054258285832156763,0.05240660196970157,0.050491351723183496,0.048559452894084795,0.04661098418733107,0.04471618271657936,0.04311093768535279,0.04220143999179596,0.042446300965226114,0.04414585776594862,0.04722631759500012,0.0511297796638634,0.05488992438534183,0.05739481711078442,0.05774933424905405,0.05559568882981924,0.051259620439323285,0.04565845145918553,0.04000349682683964,0.035410021453815416,0.032559709079037866,0.03153419021466571,0.03186896456783344,0.03279460143213182,0.033566924354576075,0.03376137344791718,0.033425725178646476,0.03304136099592849,0.033315951574426544,0.03489364092791411,0.03809845983391588,0.042809880199525294,0.04851232033404885,0.05448814015447629,0.06006856013389583,0.06484132338920312,0.06873943063412896,0.07198589727191412,0.07492372700207245,0.0778011736111623,0.08059931600537204,0.08297633434256879,0.08436137460099566,0.084171824748571,0.08207341499853224,0.07817763350626838,0.07308955676154665,0.06777584675443776,0.06329451746525551,0.060485262482642015,0.05973715681898702,0.06092054738319283,0.06350364699735886,0.06680001840563463,0.07024274119948223,0.07357485764470988,0.07688356373971418,0.08046989126491569,0.08461123952452936,0.08931761473142522,0.09418756985048288,0.0984327346722081,0.10107306634664866,0.10123507136766449,0.09844193229601622,0.09278660531258373,0.0849251098052323,0.07589617797025933,0.06683527677070016,0.05868226932354462,0.05197485634994138,0.04678203069042254,0.04278012859106993,0.039428098995250856,0.03617326401962466,0.032619452224796154,0.02861143575922391,0.024222868287974833,0.019667889039296855,0.015179122908134206,0.010900707150297489,0.006833921615266494,0.002850263670845784,-0.0012394479896023708,-0.005592352036063693,-0.010257521433928116,-0.015147835544865883,-0.020068351171444808,-0.024784604941702287,-0.029098924766265227,-0.03290371898401462,-0.03619515375618213,-0.039049661551199856,-0.04157994291886885,-0.04389133208824821,-0.046053964110599796,-0.04809564220774363,-0.05001066392341429,-0.05177550346205823,-0.05336367145554514,-0.054756447521925766,-0.055950153840846464,-0.05696216534655839,-0.05783616371900532,-0.05864328296997698,-0.05947337149157567,-0.06041346933434995,-0.06151858049177949,-0.06278763091979066,-0.0641586264417179,-0.0655288404506007,-0.06679226548076572,-0.06787617822023023,-0.06875891625098113,-0.0694620159762994,-0.07002409121730727,-0.07047181448285071,-0.07080113427528309,-0.07097326214437671,-0.07092248736916301,-0.07057108227757541,-0.0698488630801416,-0.06871617178415944,-0.06718594007573812,-0.06533554732555277,-0.06329857074769746,-0.06123387780877282,-0.0592816156088054,-0.05752466956771533,-0.055973735868048,-0.0545836357156881,-0.05329314946642911,-0.05206884992161671,-0.050931959298229385,-0.049956491229932315,-0.04923995989233686,-0.04885623572306994,-0.048801356821470555,-0.04894267989129805
